Time,Channel A
(us),(V)

0.00000000,0.71581160
0.04000000,0.62623980
0.08000000,0.49195840
0.12000000,0.35752430
0.16000000,0.17838070
0.20000000,0.04409925
0.24000000,-0.04531999
0.28000000,-0.17960140
0.32000000,-0.35874510
0.36000000,-0.44831690
0.40000000,-0.58275090
0.44000000,-0.71703240
0.48000000,-0.80660420
0.52000000,-0.94088570
0.56000000,-1.03045700
0.60000000,-1.12002900
0.64000000,-1.20960100
0.68000000,-1.29917300
0.72000000,-1.34403500
0.76000000,-1.43360700
0.80000000,-1.43360700
0.83999999,-1.43360700
0.87999999,-1.43360700
0.91999999,-1.43360700
0.95999999,-1.43360700
0.99999999,-1.38874500
1.03999999,-1.34403500
1.07999999,-1.25446300
1.11999999,-1.25446300
1.15999999,-1.12002900
1.19999999,-1.07532000
1.23999999,-0.94088570
1.27999999,-0.85131380
1.31999999,-0.71703240
1.35999999,-0.62746050
1.39999999,-0.49317910
1.43999999,-0.35874510
1.47999999,-0.22446360
1.51999999,-0.09002960
1.55999999,0.04409925
1.59999999,0.17838070
1.63999999,0.31281470
1.67999999,0.44709620
1.71999999,0.53666800
1.75999999,0.67110200
1.79999999,0.80538340
1.83999999,0.89495530
1.87999999,1.02923700
1.91999999,1.07409900
1.95999999,1.20838000
1.99999999,1.25324300
2.03999999,1.34281400
2.07999999,1.38752400
2.11999999,1.43238600
2.15999999,1.43238600
2.19999999,1.43238600
2.23999999,1.43238600
2.27999999,1.43238600
2.31999999,1.43238600
2.35999999,1.38752400
2.39999999,1.34281400
2.43999999,1.25324300
2.47999998,1.20838000
2.51999998,1.11880900
2.55999998,1.02923700
2.59999998,0.89495530
2.63999998,0.80538340
2.67999998,0.71581160
2.71999998,0.58153020
2.75999998,0.49195840
2.79999998,0.35752430
2.83999998,0.17838070
2.87999998,0.04409925
2.91999998,-0.04531999
2.95999998,-0.22446360
2.99999998,-0.31403550
3.03999998,-0.44831690
3.07999998,-0.58275090
3.11999998,-0.71703240
3.15999998,-0.80660420
3.19999998,-0.89617600
3.23999998,-0.98574790
3.27999998,-1.07532000
3.31999998,-1.12002900
3.35999998,-1.20960100
3.39999998,-1.25446300
3.43999998,-1.34403500
3.47999998,-1.34403500
3.51999998,-1.38874500
3.55999998,-1.38874500
3.59999998,-1.38874500
3.63999998,-1.34403500
3.67999998,-1.34403500
3.71999998,-1.29917300
3.75999998,-1.25446300
3.79999998,-1.16489100
3.83999998,-1.07532000
3.87999998,-0.98574790
3.91999998,-0.89617600
3.95999998,-0.80660420
3.99999998,-0.71703240
4.03999998,-0.58275090
4.07999998,-0.44831690
4.11999997,-0.35874510
4.15999997,-0.22446360
4.19999997,-0.09002960
4.23999997,0.04409925
4.27999997,0.17838070
4.31999997,0.31281470
4.35999997,0.40238650
4.39999997,0.53666800
4.43999997,0.67110200
4.47999997,0.76052120
4.51999997,0.85009310
4.55999997,0.98452710
4.59999997,1.07409900
4.63999997,1.11880900
4.67999997,1.20838000
4.71999997,1.25324300
4.75999997,1.29795200
4.79999997,1.34281400
4.83999997,1.38752400
4.87999997,1.38752400
4.91999997,1.38752400
4.95999997,1.38752400
4.99999997,1.34281400
5.03999997,1.29795200
5.07999997,1.25324300
5.11999997,1.20838000
5.15999997,1.11880900
5.19999997,1.07409900
5.23999997,0.98452710
5.27999997,0.89495530
5.31999997,0.76052120
5.35999997,0.67110200
5.39999997,0.53666800
5.43999997,0.44709620
5.47999997,0.31281470
5.51999997,0.17838070
5.55999997,0.04409925
5.59999997,-0.04531999
5.63999997,-0.22446360
5.67999997,-0.31403550
5.71999997,-0.44831690
5.75999996,-0.53788870
5.79999996,-0.67232280
5.83999996,-0.76174200
5.87999996,-0.89617600
5.91999996,-0.94088570
5.95999996,-1.03045700
5.99999996,-1.12002900
6.03999996,-1.16489100
6.07999996,-1.25446300
6.11999996,-1.25446300
6.15999996,-1.29917300
6.19999996,-1.29917300
6.23999996,-1.29917300
6.27999996,-1.29917300
6.31999996,-1.29917300
6.35999996,-1.25446300
6.39999996,-1.20960100
6.43999996,-1.16489100
6.47999996,-1.07532000
6.51999996,-1.03045700
6.55999996,-0.94088570
6.59999996,-0.85131380
6.63999996,-0.76174200
6.67999996,-0.67232280
6.71999996,-0.53788870
6.75999996,-0.40360730
6.79999996,-0.31403550
6.83999996,-0.17960140
6.87999996,-0.09002960
6.91999996,-0.00061037
6.95999996,0.17838070
6.99999996,0.31281470
7.03999996,0.40238650
7.07999996,0.53666800
7.11999996,0.62623980
7.15999996,0.71581160
7.19999996,0.85009310
7.23999996,0.93966490
7.27999996,1.02923700
7.31999996,1.07409900
7.35999996,1.16367100
7.39999996,1.20838000
7.43999995,1.25324300
7.47999995,1.29795200
7.51999995,1.29795200
7.55999995,1.34281400
7.59999995,1.29795200
7.63999995,1.29795200
7.67999995,1.25324300
7.71999995,1.25324300
7.75999995,1.20838000
7.79999995,1.11880900
7.83999995,1.07409900
7.87999995,0.98452710
7.91999995,0.89495530
7.95999995,0.80538340
7.99999995,0.71581160
8.03999995,0.62623980
8.07999995,0.49195840
8.11999995,0.35752430
8.15999995,0.31281470
8.19999995,0.13367110
8.23999995,-0.00061037
8.27999995,-0.04531999
8.31999995,-0.17960140
8.35999995,-0.31403550
8.39999995,-0.40360730
8.43999995,-0.53788870
8.47999995,-0.62746050
8.51999995,-0.71703240
8.55999995,-0.80660420
8.59999995,-0.89617600
8.63999995,-0.98574790
8.67999995,-1.07532000
8.71999995,-1.07532000
8.75999995,-1.16489100
8.79999995,-1.20960100
8.83999995,-1.25446300
8.87999995,-1.25446300
8.91999995,-1.25446300
8.95999995,-1.25446300
8.99999995,-1.20960100
9.03999995,-1.20960100
9.07999994,-1.16489100
9.11999994,-1.07532000
9.15999994,-1.03045700
9.19999994,-0.94088570
9.23999994,-0.89617600
9.27999994,-0.80660420
9.31999994,-0.71703240
9.35999994,-0.62746050
9.39999994,-0.49317910
9.43999994,-0.35874510
9.47999994,-0.26917330
9.51999994,-0.17960140
9.55999994,-0.04531999
9.59999994,0.08880886
9.63999994,0.17838070
9.67999994,0.31281470
9.71999994,0.40238650
9.75999994,0.49195840
9.79999994,0.62623980
9.83999994,0.71581160
9.87999994,0.80538340
9.91999994,0.89495530
9.95999994,0.93966490
9.99999994,1.02923700
10.03999994,1.07409900
10.07999994,1.16367100
10.11999994,1.20838000
10.15999994,1.25324300
10.19999994,1.25324300
10.23999994,1.25324300
10.27999994,1.25324300
10.31999994,1.25324300
10.35999994,1.25324300
10.39999994,1.20838000
10.43999994,1.11880900
10.47999994,1.07409900
10.51999994,1.02923700
10.55999994,0.93966490
10.59999994,0.85009310
10.63999994,0.76052120
10.67999994,0.67110200
10.71999993,0.58153020
10.75999993,0.49195840
10.79999993,0.35752430
10.83999993,0.26795250
10.87999993,0.13367110
10.91999993,-0.00061037
10.95999993,-0.09002960
10.99999993,-0.22446360
11.03999993,-0.31403550
11.07999993,-0.40360730
11.11999993,-0.53788870
11.15999993,-0.62746050
11.19999993,-0.71703240
11.23999993,-0.76174200
11.27999993,-0.89617600
11.31999993,-0.94088570
11.35999993,-0.98574790
11.39999993,-1.03045700
11.43999993,-1.07532000
11.47999993,-1.12002900
11.51999993,-1.16489100
11.55999993,-1.16489100
11.59999993,-1.20960100
11.63999993,-1.16489100
11.67999993,-1.16489100
11.71999993,-1.12002900
11.75999993,-1.07532000
11.79999993,-1.03045700
11.83999993,-0.98574790
11.87999993,-0.94088570
11.91999993,-0.85131380
11.95999993,-0.76174200
11.99999993,-0.67232280
12.03999993,-0.58275090
12.07999993,-0.49317910
12.11999993,-0.35874510
12.15999993,-0.26917330
12.19999993,-0.13489180
12.23999993,-0.04531999
12.27999993,0.08880886
12.31999993,0.17838070
12.35999992,0.31281470
12.39999992,0.35752430
12.43999992,0.49195840
12.47999992,0.58153020
12.51999992,0.67110200
12.55999992,0.76052120
12.59999992,0.85009310
12.63999992,0.89495530
12.67999992,0.98452710
12.71999992,1.02923700
12.75999992,1.07409900
12.79999992,1.11880900
12.83999992,1.16367100
12.87999992,1.20838000
12.91999992,1.20838000
12.95999992,1.20838000
12.99999992,1.16367100
13.03999992,1.16367100
13.07999992,1.11880900
13.11999992,1.07409900
13.15999992,1.02923700
13.19999992,0.93966490
13.23999992,0.89495530
13.27999992,0.80538340
13.31999992,0.71581160
13.35999992,0.62623980
13.39999992,0.53666800
13.43999992,0.44709620
13.47999992,0.35752430
13.51999992,0.22324290
13.55999992,0.13367110
13.59999992,-0.00061037
13.63999992,-0.09002960
13.67999992,-0.17960140
13.71999992,-0.31403550
13.75999992,-0.40360730
13.79999992,-0.49317910
13.83999992,-0.58275090
13.87999992,-0.67232280
13.91999992,-0.76174200
13.95999992,-0.85131380
13.99999991,-0.89617600
14.03999991,-0.94088570
14.07999991,-1.03045700
14.11999991,-1.07532000
14.15999991,-1.07532000
14.19999991,-1.12002900
14.23999991,-1.12002900
14.27999991,-1.12002900
14.31999991,-1.12002900
14.35999991,-1.07532000
14.39999991,-1.07532000
14.43999991,-1.07532000
14.47999991,-0.98574790
14.51999991,-0.94088570
14.55999991,-0.89617600
14.59999991,-0.80660420
14.63999991,-0.71703240
14.67999991,-0.62746050
14.71999991,-0.53788870
14.75999991,-0.44831690
14.79999991,-0.35874510
14.83999991,-0.22446360
14.87999991,-0.13489180
14.91999991,-0.04531999
14.95999991,0.04409925
14.99999991,0.17838070
15.03999991,0.31281470
15.07999991,0.35752430
15.11999991,0.49195840
15.15999991,0.58153020
15.19999991,0.67110200
15.23999991,0.71581160
15.27999991,0.80538340
15.31999991,0.89495530
15.35999991,0.93966490
15.39999991,1.02923700
15.43999991,1.07409900
15.47999991,1.07409900
15.51999991,1.11880900
15.55999991,1.11880900
15.59999991,1.11880900
15.63999990,1.16367100
15.67999990,1.11880900
15.71999990,1.07409900
15.75999990,1.07409900
15.79999990,1.02923700
15.83999990,0.93966490
15.87999990,0.89495530
15.91999990,0.85009310
15.95999990,0.76052120
15.99999990,0.71581160
16.03999990,0.58153020
16.07999990,0.49195840
16.11999990,0.40238650
16.15999990,0.31281470
16.19999990,0.22324290
16.23999990,0.08880886
16.27999990,-0.00061037
16.31999990,-0.09002960
16.35999990,-0.17960140
16.39999990,-0.26917330
16.43999990,-0.35874510
16.47999990,-0.49317910
16.51999990,-0.58275090
16.55999990,-0.62746050
16.59999990,-0.71703240
16.63999990,-0.80660420
16.67999990,-0.89617600
16.71999990,-0.94088570
16.75999990,-0.98574790
16.79999990,-1.03045700
16.83999990,-1.03045700
16.87999990,-1.07532000
16.91999990,-1.07532000
16.95999990,-1.07532000
16.99999990,-1.07532000
17.03999990,-1.03045700
17.07999990,-1.03045700
17.11999990,-0.98574790
17.15999990,-0.94088570
17.19999990,-0.89617600
17.23999990,-0.80660420
17.27999989,-0.71703240
17.31999989,-0.67232280
17.35999989,-0.58275090
17.39999989,-0.49317910
17.43999989,-0.40360730
17.47999989,-0.31403550
17.51999989,-0.22446360
17.55999989,-0.13489180
17.59999989,-0.00061037
17.63999989,0.08880886
17.67999989,0.17838070
17.71999989,0.26795250
17.75999989,0.35752430
17.79999989,0.44709620
17.83999989,0.53666800
17.87999989,0.62623980
17.91999989,0.71581160
17.95999989,0.76052120
17.99999989,0.85009310
18.03999989,0.89495530
18.07999989,0.93966490
18.11999989,1.02923700
18.15999989,1.07409900
18.19999989,1.07409900
18.23999989,1.07409900
18.27999989,1.07409900
18.31999989,1.07409900
18.35999989,1.07409900
18.39999989,1.07409900
18.43999989,1.02923700
18.47999989,0.93966490
18.51999989,0.89495530
18.55999989,0.85009310
18.59999989,0.80538340
18.63999989,0.71581160
18.67999989,0.67110200
18.71999989,0.53666800
18.75999989,0.44709620
18.79999989,0.35752430
18.83999989,0.31281470
18.87999989,0.17838070
18.91999989,0.08880886
18.95999988,-0.00061037
18.99999988,-0.09002960
19.03999988,-0.17960140
19.07999988,-0.26917330
19.11999988,-0.35874510
19.15999988,-0.49317910
19.19999988,-0.53788870
19.23999988,-0.62746050
19.27999988,-0.71703240
19.31999988,-0.76174200
19.35999988,-0.85131380
19.39999988,-0.89617600
19.43999988,-0.94088570
19.47999988,-0.98574790
19.51999988,-0.98574790
19.55999988,-1.03045700
19.59999988,-1.03045700
19.63999988,-1.03045700
19.67999988,-1.03045700
19.71999988,-0.98574790
19.75999988,-0.98574790
19.79999988,-0.94088570
19.83999988,-0.89617600
19.87999988,-0.85131380
19.91999988,-0.76174200
19.95999988,-0.71703240
19.99999988,-0.62746050
20.03999988,-0.53788870
20.07999988,-0.49317910
20.11999988,-0.35874510
20.15999988,-0.26917330
20.19999988,-0.22446360
20.23999988,-0.09002960
20.27999988,-0.00061037
20.31999988,0.08880886
20.35999988,0.17838070
20.39999988,0.26795250
20.43999988,0.35752430
20.47999988,0.44709620
20.51999988,0.53666800
20.55999988,0.62623980
20.59999987,0.67110200
20.63999987,0.71581160
20.67999987,0.80538340
20.71999987,0.89495530
20.75999987,0.89495530
20.79999987,0.93966490
20.83999987,0.98452710
20.87999987,1.02923700
20.91999987,1.07409900
20.95999987,1.07409900
20.99999987,1.07409900
21.03999987,1.16367100
21.07999987,1.20838000
21.11999987,1.25324300
21.15999987,1.34281400
21.19999987,1.38752400
21.23999987,1.43238600
21.27999987,1.47709600
21.31999987,1.47709600
21.35999987,1.43238600
21.39999987,1.29795200
21.43999987,1.20838000
21.47999987,1.02923700
21.51999987,0.80538340
21.55999987,0.58153020
21.59999987,0.31281470
21.63999987,0.04409925
21.67999987,-0.22446360
21.71999987,-0.53788870
21.75999987,-0.76174200
21.79999987,-0.98574790
21.83999987,-1.16489100
21.87999987,-1.34403500
21.91999987,-1.43360700
21.95999987,-1.52302600
21.99999987,-1.52302600
22.03999987,-1.52302600
22.07999987,-1.47831700
22.11999987,-1.43360700
22.15999987,-1.38874500
22.19999987,-1.34403500
22.23999986,-1.25446300
22.27999986,-1.20960100
22.31999986,-1.12002900
22.35999986,-1.12002900
22.39999986,-1.12002900
22.43999986,-1.07532000
22.47999986,-1.07532000
22.51999986,-1.12002900
22.55999986,-1.12002900
22.59999986,-1.16489100
22.63999986,-1.16489100
22.67999986,-1.16489100
22.71999986,-1.12002900
22.75999986,-1.07532000
22.79999986,-0.94088570
22.83999986,-0.85131380
22.87999986,-0.67232280
22.91999986,-0.44831690
22.95999986,-0.26917330
22.99999986,-0.04531999
23.03999986,0.17838070
23.07999986,0.44709620
23.11999986,0.67110200
23.15999986,0.89495530
23.19999986,1.11880900
23.23999986,1.34281400
23.27999986,1.61137700
23.31999986,1.83538300
23.35999986,2.10409900
23.39999986,2.32795200
23.43999986,2.50709600
23.47999986,2.68623900
23.51999986,2.82052100
23.55999986,2.86538300
23.59999986,2.86538300
23.63999986,2.73094900
23.67999986,2.59666700
23.71999986,2.32795200
23.75999986,2.05923700
23.79999986,1.79052100
23.83999986,1.43238600
23.87999985,1.07409900
23.91999985,0.71581160
23.95999985,0.40238650
23.99999985,0.08880886
24.03999985,-0.17960140
24.07999985,-0.35874510
24.11999985,-0.58275090
24.15999985,-0.71703240
24.19999985,-0.80660420
24.23999985,-0.85131380
24.27999985,-0.89617600
24.31999985,-0.89617600
24.35999985,-0.89617600
24.39999985,-0.89617600
24.43999985,-0.94088570
24.47999985,-0.98574790
24.51999985,-1.07532000
24.55999985,-1.16489100
24.59999985,-1.29917300
24.63999985,-1.43360700
24.67999985,-1.61259800
24.71999985,-1.79174200
24.75999985,-1.97088500
24.79999985,-2.15002900
24.83999985,-2.32917300
24.87999985,-2.41874500
24.91999985,-2.50831600
24.95999985,-2.50831600
24.99999985,-2.50831600
25.03999985,-2.37388200
25.07999985,-2.19473900
25.11999985,-2.01574800
25.15999985,-1.74703200
25.19999985,-1.47831700
25.23999985,-1.16489100
25.27999985,-0.85131380
25.31999985,-0.53788870
25.35999985,-0.22446360
25.39999985,0.08880886
25.43999985,0.35752430
25.47999985,0.58153020
25.51999984,0.76052120
25.55999984,0.89495530
25.59999984,1.07409900
25.63999984,1.11880900
25.67999984,1.16367100
25.71999984,1.20838000
25.75999984,1.25324300
25.79999984,1.34281400
25.83999984,1.43238600
25.87999984,1.56666800
25.91999984,1.74581100
25.95999984,1.88009300
25.99999984,2.05923700
26.03999984,2.23838000
26.07999984,2.41752400
26.11999984,2.50709600
26.15999984,2.64137700
26.19999984,2.68623900
26.23999984,2.68623900
26.27999984,2.64137700
26.31999984,2.50709600
26.35999984,2.37266200
26.39999984,2.14880800
26.43999984,1.88009300
26.47999984,1.56666800
26.51999984,1.25324300
26.55999984,0.89495530
26.59999984,0.58153020
26.63999984,0.22324290
26.67999984,-0.09002960
26.71999984,-0.35874510
26.75999984,-0.62746050
26.79999984,-0.80660420
26.83999984,-0.98574790
26.87999984,-1.12002900
26.91999984,-1.25446300
26.95999984,-1.29917300
26.99999984,-1.34403500
27.03999984,-1.34403500
27.07999984,-1.38874500
27.11999984,-1.43360700
27.15999983,-1.47831700
27.19999983,-1.52302600
27.23999983,-1.61259800
27.27999983,-1.70217000
27.31999983,-1.79174200
27.35999983,-1.92617600
27.39999983,-2.01574800
27.43999983,-2.15002900
27.47999983,-2.23960100
27.51999983,-2.32917300
27.55999983,-2.37388200
27.59999983,-2.37388200
27.63999983,-2.32917300
27.67999983,-2.23960100
27.71999983,-2.15002900
27.75999983,-1.97088500
27.79999983,-1.74703200
27.83999983,-1.47831700
27.87999983,-1.25446300
27.91999983,-0.94088570
27.95999983,-0.62746050
27.99999983,-0.26917330
28.03999983,-0.00061037
28.07999983,0.31281470
28.11999983,0.58153020
28.15999983,0.85009310
28.19999983,1.07409900
28.23999983,1.20838000
28.27999983,1.34281400
28.31999983,1.43238600
28.35999983,1.56666800
28.39999983,1.61137700
28.43999983,1.65624000
28.47999983,1.70094900
28.51999983,1.74581100
28.55999983,1.74581100
28.59999983,1.79052100
28.63999983,1.83538300
28.67999983,1.83538300
28.71999983,1.92495500
28.75999983,1.96966500
28.79999982,2.01452700
28.83999982,2.10409900
28.87999982,2.10409900
28.91999982,2.10409900
28.95999982,2.14880800
28.99999982,2.10409900
29.03999982,2.05923700
29.07999982,1.96966500
29.11999982,1.79052100
29.15999982,1.61137700
29.19999982,1.43238600
29.23999982,1.20838000
29.27999982,0.93966490
29.31999982,0.62623980
29.35999982,0.35752430
29.39999982,0.08880886
29.43999982,-0.22446360
29.47999982,-0.49317910
29.51999982,-0.76174200
29.55999982,-0.98574790
29.59999982,-1.16489100
29.63999982,-1.34403500
29.67999982,-1.47831700
29.71999982,-1.61259800
29.75999982,-1.70217000
29.79999982,-1.79174200
29.83999982,-1.79174200
29.87999982,-1.83660400
29.91999982,-1.83660400
29.95999982,-1.83660400
29.99999982,-1.88131400
30.03999982,-1.88131400
30.07999982,-1.88131400
30.11999982,-1.88131400
30.15999982,-1.92617600
30.19999982,-1.92617600
30.23999982,-1.88131400
30.27999982,-1.88131400
30.31999982,-1.88131400
30.35999982,-1.83660400
30.39999982,-1.79174200
30.43999982,-1.65746000
30.47999981,-1.56788800
30.51999981,-1.38874500
30.55999981,-1.20960100
30.59999981,-1.03045700
30.63999981,-0.80660420
30.67999981,-0.53788870
30.71999981,-0.26917330
30.75999981,-0.00061037
30.79999981,0.22324290
30.83999981,0.53666800
30.87999981,0.71581160
30.91999981,0.98452710
30.95999981,1.20838000
30.99999981,1.38752400
31.03999981,1.56666800
31.07999981,1.70094900
31.11999981,1.79052100
31.15999981,1.88009300
31.19999981,1.92495500
31.23999981,1.96966500
31.27999981,1.96966500
31.31999981,1.96966500
31.35999981,1.96966500
31.39999981,1.96966500
31.43999981,1.92495500
31.47999981,1.92495500
31.51999981,1.88009300
31.55999981,1.88009300
31.59999981,1.83538300
31.63999981,1.79052100
31.67999981,1.74581100
31.71999981,1.65624000
31.75999981,1.56666800
31.79999981,1.47709600
31.83999981,1.34281400
31.87999981,1.25324300
31.91999981,1.07409900
31.95999981,0.89495530
31.99999981,0.71581160
32.03999981,0.49195840
32.07999981,0.26795250
32.11999980,-0.00061037
32.15999980,-0.22446360
32.19999980,-0.49317910
32.23999980,-0.71703240
32.27999980,-0.94088570
32.31999980,-1.12002900
32.35999980,-1.34403500
32.39999980,-1.47831700
32.43999980,-1.61259800
32.47999980,-1.79174200
32.51999980,-1.83660400
32.55999980,-1.92617600
32.59999980,-1.97088500
32.63999980,-1.97088500
32.67999980,-1.97088500
32.71999980,-1.97088500
32.75999980,-1.97088500
32.79999980,-1.92617600
32.83999980,-1.88131400
32.87999980,-1.79174200
32.91999980,-1.74703200
