Time	Channel A
(us)	(V)

0.00000000	1.52180600
0.04000000	1.56666800
0.08000000	1.61137700
0.12000000	1.70094900
0.16000000	1.74581100
0.20000000	1.74581100
0.24000000	1.79052100
0.28000000	1.79052100
0.32000000	1.83538300
0.36000000	1.92495500
0.40000000	1.96966500
0.44000000	1.96966500
0.48000000	2.05923700
0.52000000	2.10409900
0.56000000	2.14880800
0.60000000	2.14880800
0.64000000	2.14880800
0.68000000	2.05923700
0.72000000	1.96966500
0.76000000	1.88009300
0.80000000	1.70094900
0.83999999	1.52180600
0.87999999	1.29795200
0.91999999	1.07409900
0.95999999	0.76052120
0.99999999	0.49195840
1.03999999	0.17838070
1.07999999	-0.09002960
1.11999999	-0.35874510
1.15999999	-0.62746050
1.19999999	-0.89617600
1.23999999	-1.07532000
1.27999999	-1.29917300
1.31999999	-1.43360700
1.35999999	-1.56788800
1.39999999	-1.65746000
1.43999999	-1.74703200
1.47999999	-1.79174200
1.51999999	-1.83660400
1.55999999	-1.83660400
1.59999999	-1.83660400
1.63999999	-1.83660400
1.67999999	-1.83660400
1.71999999	-1.88131400
1.75999999	-1.88131400
1.79999999	-1.92617600
1.83999999	-1.92617600
1.87999999	-1.92617600
1.91999999	-1.92617600
1.95999999	-1.88131400
1.99999999	-1.83660400
2.03999999	-1.79174200
2.07999999	-1.70217000
2.11999999	-1.61259800
2.15999999	-1.47831700
2.19999999	-1.29917300
2.23999999	-1.12002900
2.27999999	-0.89617600
2.31999999	-0.67232280
2.35999999	-0.40360730
2.39999999	-0.17960140
2.43999999	0.13367110
2.47999998	0.35752430
2.51999998	0.67110200
2.55999998	0.85009310
2.59999998	1.11880900
2.63999998	1.34281400
2.67999998	1.47709600
2.71999998	1.61137700
2.75999998	1.79052100
2.79999998	1.83538300
2.83999998	1.92495500
2.87999998	1.96966500
2.91999998	1.96966500
2.95999998	1.96966500
2.99999998	1.96966500
3.03999998	1.96966500
3.07999998	1.96966500
3.11999998	1.92495500
3.15999998	1.92495500
3.19999998	1.88009300
3.23999998	1.83538300
3.27999998	1.79052100
3.31999998	1.79052100
3.35999998	1.70094900
3.39999998	1.61137700
3.43999998	1.52180600
3.47999998	1.43238600
3.51999998	1.29795200
3.55999998	1.16367100
3.59999998	0.98452710
3.63999998	0.80538340
3.67999998	0.58153020
3.71999998	0.35752430
3.75999998	0.13367110
3.79999998	-0.09002960
3.83999998	-0.35874510
3.87999998	-0.58275090
3.91999998	-0.80660420
3.95999998	-1.07532000
3.99999998	-1.25446300
4.03999998	-1.43360700
4.07999998	-1.61259800
4.11999997	-1.70217000
4.15999997	-1.83660400
4.19999997	-1.92617600
4.23999997	-1.97088500
4.27999997	-1.97088500
4.31999997	-2.01574800
4.35999997	-2.01574800
4.39999997	-1.97088500
4.43999997	-1.92617600
4.47999997	-1.92617600
4.51999997	-1.83660400
4.55999997	-1.79174200
4.59999997	-1.74703200
4.63999997	-1.65746000
4.67999997	-1.61259800
4.71999997	-1.52302600
4.75999997	-1.43360700
4.79999997	-1.34403500
4.83999997	-1.20960100
4.87999997	-1.07532000
4.91999997	-0.94088570
4.95999997	-0.76174200
4.99999997	-0.58275090
5.03999997	-0.40360730
5.07999997	-0.22446360
5.11999997	-0.00061037
5.15999997	0.22324290
5.19999997	0.44709620
5.23999997	0.67110200
5.27999997	0.85009310
5.31999997	1.07409900
5.35999997	1.25324300
5.39999997	1.43238600
5.43999997	1.61137700
5.47999997	1.74581100
5.51999997	1.88009300
5.55999997	1.96966500
5.59999997	2.01452700
5.63999997	2.05923700
5.67999997	2.05923700
5.71999997	2.05923700
5.75999996	2.01452700
5.79999996	1.96966500
5.83999996	1.92495500
5.87999996	1.88009300
5.91999996	1.79052100
5.95999996	1.70094900
5.99999996	1.61137700
6.03999996	1.52180600
6.07999996	1.43238600
6.11999996	1.29795200
6.15999996	1.20838000
6.19999996	1.07409900
6.23999996	0.93966490
6.27999996	0.80538340
6.31999996	0.67110200
6.35999996	0.49195840
6.39999996	0.31281470
6.43999996	0.13367110
6.47999996	-0.04531999
6.51999996	-0.26917330
6.55999996	-0.44831690
6.59999996	-0.67232280
6.63999996	-0.85131380
6.67999996	-1.07532000
6.71999996	-1.25446300
6.75999996	-1.38874500
6.79999996	-1.56788800
6.83999996	-1.65746000
6.87999996	-1.79174200
6.91999996	-1.88131400
6.95999996	-1.97088500
6.99999996	-1.97088500
7.03999996	-2.01574800
7.07999996	-2.01574800
7.11999996	-1.97088500
7.15999996	-1.92617600
7.19999996	-1.88131400
7.23999996	-1.79174200
7.27999996	-1.74703200
7.31999996	-1.61259800
7.35999996	-1.52302600
7.39999996	-1.38874500
7.43999995	-1.29917300
7.47999995	-1.16489100
7.51999995	-1.03045700
7.55999995	-0.89617600
7.59999995	-0.76174200
7.63999995	-0.62746050
7.67999995	-0.49317910
7.71999995	-0.31403550
7.75999995	-0.17960140
7.79999995	-0.00061037
7.83999995	0.17838070
7.87999995	0.40238650
7.91999995	0.58153020
7.95999995	0.76052120
7.99999995	0.93966490
8.03999995	1.07409900
8.07999995	1.25324300
8.11999995	1.43238600
8.15999995	1.56666800
8.19999995	1.70094900
8.23999995	1.79052100
8.27999995	1.92495500
8.31999995	1.96966500
8.35999995	1.96966500
8.39999995	2.01452700
8.43999995	2.01452700
8.47999995	1.96966500
8.51999995	1.96966500
8.55999995	1.88009300
8.59999995	1.79052100
8.63999995	1.74581100
8.67999995	1.61137700
8.71999995	1.47709600
8.75999995	1.38752400
8.79999995	1.25324300
8.83999995	1.07409900
8.87999995	0.98452710
8.91999995	0.85009310
8.95999995	0.67110200
8.99999995	0.53666800
9.03999995	0.35752430
9.07999994	0.22324290
9.11999994	0.04409925
9.15999994	-0.13489180
9.19999994	-0.26917330
9.23999994	-0.44831690
9.27999994	-0.62746050
9.31999994	-0.76174200
9.35999994	-0.94088570
9.39999994	-1.07532000
9.43999994	-1.25446300
9.47999994	-1.38874500
9.51999994	-1.52302600
9.55999994	-1.65746000
9.59999994	-1.74703200
9.63999994	-1.83660400
9.67999994	-1.88131400
9.71999994	-1.92617600
9.75999994	-1.92617600
9.79999994	-1.92617600
9.83999994	-1.92617600
9.87999994	-1.83660400
9.91999994	-1.79174200
9.95999994	-1.70217000
9.99999994	-1.61259800
10.03999994	-1.52302600
10.07999994	-1.38874500
10.11999994	-1.25446300
10.15999994	-1.12002900
10.19999994	-0.94088570
10.23999994	-0.85131380
10.27999994	-0.67232280
10.31999994	-0.53788870
10.35999994	-0.35874510
10.39999994	-0.22446360
10.43999994	-0.04531999
10.47999994	0.08880886
10.51999994	0.26795250
10.55999994	0.40238650
10.59999994	0.53666800
10.63999994	0.71581160
10.67999994	0.89495530
10.71999993	1.02923700
10.75999993	1.16367100
10.79999993	1.29795200
10.83999993	1.43238600
10.87999993	1.56666800
10.91999993	1.65624000
10.95999993	1.74581100
10.99999993	1.79052100
11.03999993	1.88009300
11.07999993	1.88009300
11.11999993	1.92495500
11.15999993	1.92495500
11.19999993	1.88009300
11.23999993	1.83538300
11.27999993	1.79052100
11.31999993	1.65624000
11.35999993	1.56666800
11.39999993	1.43238600
11.43999993	1.34281400
11.47999993	1.20838000
11.51999993	1.07409900
11.55999993	0.89495530
11.59999993	0.76052120
11.63999993	0.62623980
11.67999993	0.44709620
11.71999993	0.31281470
11.75999993	0.13367110
11.79999993	-0.00061037
11.83999993	-0.17960140
11.87999993	-0.31403550
11.91999993	-0.49317910
11.95999993	-0.62746050
11.99999993	-0.76174200
12.03999993	-0.89617600
12.07999993	-1.03045700
12.11999993	-1.16489100
12.15999993	-1.29917300
12.19999993	-1.43360700
12.23999993	-1.52302600
12.27999993	-1.61259800
12.31999993	-1.65746000
12.35999992	-1.74703200
12.39999992	-1.79174200
12.43999992	-1.79174200
12.47999992	-1.79174200
12.51999992	-1.79174200
12.55999992	-1.79174200
12.59999992	-1.70217000
12.63999992	-1.65746000
12.67999992	-1.56788800
12.71999992	-1.47831700
12.75999992	-1.38874500
12.79999992	-1.25446300
12.83999992	-1.07532000
12.87999992	-0.94088570
12.91999992	-0.80660420
12.95999992	-0.67232280
12.99999992	-0.49317910
13.03999992	-0.31403550
13.07999992	-0.17960140
13.11999992	-0.00061037
13.15999992	0.13367110
13.19999992	0.31281470
13.23999992	0.44709620
13.27999992	0.58153020
13.31999992	0.71581160
13.35999992	0.89495530
13.39999992	1.02923700
13.43999992	1.16367100
13.47999992	1.25324300
13.51999992	1.34281400
13.55999992	1.43238600
13.59999992	1.56666800
13.63999992	1.61137700
13.67999992	1.70094900
13.71999992	1.74581100
13.75999992	1.74581100
13.79999992	1.79052100
13.83999992	1.79052100
13.87999992	1.74581100
13.91999992	1.74581100
13.95999992	1.65624000
13.99999991	1.61137700
14.03999991	1.52180600
14.07999991	1.43238600
14.11999991	1.29795200
14.15999991	1.20838000
14.19999991	1.02923700
14.23999991	0.89495530
14.27999991	0.76052120
14.31999991	0.58153020
14.35999991	0.44709620
14.39999991	0.26795250
14.43999991	0.13367110
14.47999991	-0.04531999
14.51999991	-0.17960140
14.55999991	-0.35874510
14.59999991	-0.49317910
14.63999991	-0.62746050
14.67999991	-0.76174200
14.71999991	-0.89617600
14.75999991	-1.03045700
14.79999991	-1.12002900
14.83999991	-1.25446300
14.87999991	-1.34403500
14.91999991	-1.43360700
14.95999991	-1.47831700
14.99999991	-1.56788800
15.03999991	-1.61259800
15.07999991	-1.65746000
15.11999991	-1.65746000
15.15999991	-1.70217000
15.19999991	-1.65746000
15.23999991	-1.65746000
15.27999991	-1.61259800
15.31999991	-1.56788800
15.35999991	-1.47831700
15.39999991	-1.43360700
15.43999991	-1.29917300
15.47999991	-1.16489100
15.51999991	-1.07532000
15.55999991	-0.94088570
15.59999991	-0.76174200
15.63999990	-0.62746050
15.67999990	-0.49317910
15.71999990	-0.35874510
15.75999990	-0.17960140
15.79999990	-0.00061037
15.83999990	0.13367110
15.87999990	0.31281470
15.91999990	0.44709620
15.95999990	0.58153020
15.99999990	0.71581160
16.03999990	0.85009310
16.07999990	0.98452710
16.11999990	1.11880900
16.15999990	1.25324300
16.19999990	1.34281400
16.23999990	1.38752400
16.27999990	1.47709600
16.31999990	1.52180600
16.35999990	1.56666800
16.39999990	1.61137700
16.43999990	1.61137700
16.47999990	1.65624000
16.51999990	1.70094900
16.55999990	1.65624000
16.59999990	1.61137700
16.63999990	1.56666800
16.67999990	1.47709600
16.71999990	1.43238600
16.75999990	1.34281400
16.79999990	1.25324300
16.83999990	1.11880900
16.87999990	1.02923700
16.91999990	0.85009310
16.95999990	0.71581160
16.99999990	0.58153020
17.03999990	0.44709620
17.07999990	0.31281470
17.11999990	0.13367110
17.15999990	-0.04531999
17.19999990	-0.17960140
17.23999990	-0.35874510
17.27999989	-0.49317910
17.31999989	-0.62746050
17.35999989	-0.76174200
17.39999989	-0.89617600
17.43999989	-0.98574790
17.47999989	-1.12002900
17.51999989	-1.20960100
17.55999989	-1.29917300
17.59999989	-1.38874500
17.63999989	-1.43360700
17.67999989	-1.52302600
17.71999989	-1.52302600
17.75999989	-1.56788800
17.79999989	-1.61259800
17.83999989	-1.61259800
17.87999989	-1.56788800
17.91999989	-1.52302600
17.95999989	-1.52302600
17.99999989	-1.43360700
18.03999989	-1.38874500
18.07999989	-1.29917300
18.11999989	-1.25446300
18.15999989	-1.12002900
18.19999989	-0.98574790
18.23999989	-0.89617600
18.27999989	-0.76174200
18.31999989	-0.62746050
18.35999989	-0.44831690
18.39999989	-0.31403550
18.43999989	-0.17960140
18.47999989	-0.00061037
18.51999989	0.08880886
18.55999989	0.31281470
18.59999989	0.44709620
18.63999989	0.58153020
18.67999989	0.71581160
18.71999989	0.85009310
18.75999989	0.98452710
18.79999989	1.07409900
18.83999989	1.16367100
18.87999989	1.25324300
18.91999989	1.38752400
18.95999988	1.43238600
18.99999988	1.47709600
19.03999988	1.52180600
19.07999988	1.56666800
19.11999988	1.56666800
19.15999988	1.56666800
19.19999988	1.56666800
19.23999988	1.52180600
19.27999988	1.52180600
19.31999988	1.43238600
19.35999988	1.43238600
19.39999988	1.34281400
19.43999988	1.25324300
19.47999988	1.16367100
19.51999988	1.07409900
19.55999988	0.93966490
19.59999988	0.80538340
19.63999988	0.71581160
19.67999988	0.53666800
19.71999988	0.44709620
19.75999988	0.26795250
19.79999988	0.13367110
19.83999988	-0.00061037
19.87999988	-0.17960140
19.91999988	-0.31403550
19.95999988	-0.44831690
19.99999988	-0.58275090
20.03999988	-0.71703240
20.07999988	-0.85131380
20.11999988	-0.98574790
20.15999988	-1.07532000
20.19999988	-1.16489100
20.23999988	-1.25446300
20.27999988	-1.34403500
20.31999988	-1.38874500
20.35999988	-1.43360700
20.39999988	-1.47831700
20.43999988	-1.47831700
20.47999988	-1.52302600
20.51999988	-1.52302600
20.55999988	-1.47831700
20.59999987	-1.47831700
20.63999987	-1.43360700
20.67999987	-1.38874500
20.71999987	-1.29917300
20.75999987	-1.25446300
20.79999987	-1.12002900
20.83999987	-1.03045700
20.87999987	-0.94088570
20.91999987	-0.80660420
20.95999987	-0.71703240
20.99999987	-0.58275090
21.03999987	-0.44831690
21.07999987	-0.31403550
21.11999987	-0.17960140
21.15999987	-0.00061037
21.19999987	0.13367110
21.23999987	0.26795250
21.27999987	0.40238650
21.31999987	0.53666800
21.35999987	0.67110200
21.39999987	0.76052120
21.43999987	0.89495530
21.47999987	1.02923700
21.51999987	1.11880900
21.55999987	1.20838000
21.59999987	1.29795200
21.63999987	1.38752400
21.67999987	1.43238600
21.71999987	1.43238600
21.75999987	1.47709600
21.79999987	1.47709600
21.83999987	1.52180600
21.87999987	1.52180600
21.91999987	1.47709600
21.95999987	1.43238600
21.99999987	1.38752400
22.03999987	1.34281400
22.07999987	1.25324300
22.11999987	1.20838000
22.15999987	1.07409900
22.19999987	1.02923700
22.23999986	0.85009310
22.27999986	0.76052120
22.31999986	0.67110200
22.35999986	0.49195840
22.39999986	0.35752430
22.43999986	0.22324290
22.47999986	0.08880886
22.51999986	-0.04531999
22.55999986	-0.17960140
22.59999986	-0.31403550
22.63999986	-0.40360730
22.67999986	-0.53788870
22.71999986	-0.67232280
22.75999986	-0.80660420
22.79999986	-0.89617600
22.83999986	-1.03045700
22.87999986	-1.12002900
22.91999986	-1.20960100
22.95999986	-1.25446300
22.99999986	-1.29917300
23.03999986	-1.38874500
23.07999986	-1.43360700
23.11999986	-1.43360700
23.15999986	-1.43360700
23.19999986	-1.43360700
23.23999986	-1.43360700
23.27999986	-1.38874500
23.31999986	-1.34403500
23.35999986	-1.29917300
23.39999986	-1.25446300
23.43999986	-1.16489100
23.47999986	-1.07532000
23.51999986	-0.98574790
23.55999986	-0.89617600
23.59999986	-0.76174200
23.63999986	-0.62746050
23.67999986	-0.53788870
23.71999986	-0.40360730
23.75999986	-0.26917330
23.79999986	-0.17960140
23.83999986	-0.00061037
23.87999985	0.13367110
23.91999985	0.26795250
23.95999985	0.40238650
23.99999985	0.53666800
24.03999985	0.67110200
24.07999985	0.76052120
24.11999985	0.85009310
24.15999985	0.98452710
24.19999985	1.07409900
24.23999985	1.16367100
24.27999985	1.25324300
24.31999985	1.29795200
24.35999985	1.34281400
24.39999985	1.43238600
24.43999985	1.43238600
24.47999985	1.43238600
24.51999985	1.43238600
24.55999985	1.43238600
24.59999985	1.43238600
24.63999985	1.38752400
24.67999985	1.34281400
24.71999985	1.25324300
24.75999985	1.20838000
24.79999985	1.11880900
24.83999985	1.02923700
24.87999985	0.89495530
24.91999985	0.85009310
24.95999985	0.71581160
24.99999985	0.58153020
25.03999985	0.49195840
25.07999985	0.35752430
25.11999985	0.22324290
25.15999985	0.08880886
25.19999985	-0.00061037
25.23999985	-0.17960140
25.27999985	-0.26917330
25.31999985	-0.40360730
25.35999985	-0.53788870
25.39999985	-0.67232280
25.43999985	-0.76174200
25.47999985	-0.89617600
25.51999984	-0.94088570
25.55999984	-1.07532000
25.59999984	-1.12002900
25.63999984	-1.20960100
25.67999984	-1.25446300
25.71999984	-1.29917300
25.75999984	-1.34403500
25.79999984	-1.38874500
25.83999984	-1.38874500
25.87999984	-1.34403500
25.91999984	-1.34403500
25.95999984	-1.34403500
25.99999984	-1.29917300
26.03999984	-1.25446300
26.07999984	-1.16489100
26.11999984	-1.07532000
26.15999984	-1.03045700
26.19999984	-0.94088570
26.23999984	-0.80660420
26.27999984	-0.71703240
26.31999984	-0.58275090
26.35999984	-0.49317910
26.39999984	-0.35874510
26.43999984	-0.22446360
26.47999984	-0.13489180
26.51999984	-0.00061037
26.55999984	0.13367110
26.59999984	0.26795250
26.63999984	0.35752430
26.67999984	0.53666800
26.71999984	0.62623980
26.75999984	0.71581160
26.79999984	0.85009310
26.83999984	0.89495530
26.87999984	1.02923700
26.91999984	1.11880900
26.95999984	1.16367100
26.99999984	1.25324300
27.03999984	1.25324300
27.07999984	1.34281400
27.11999984	1.38752400
27.15999983	1.38752400
27.19999983	1.38752400
27.23999983	1.38752400
27.27999983	1.34281400
27.31999983	1.29795200
27.35999983	1.25324300
27.39999983	1.25324300
27.43999983	1.11880900
27.47999983	1.07409900
27.51999983	0.98452710
27.55999983	0.89495530
27.59999983	0.76052120
27.63999983	0.67110200
27.67999983	0.53666800
27.71999983	0.44709620
27.75999983	0.35752430
27.79999983	0.17838070
27.83999983	0.08880886
27.87999983	-0.04531999
27.91999983	-0.17960140
27.95999983	-0.26917330
27.99999983	-0.40360730
28.03999983	-0.53788870
28.07999983	-0.62746050
28.11999983	-0.71703240
28.15999983	-0.85131380
28.19999983	-0.94088570
28.23999983	-0.98574790
28.27999983	-1.07532000
28.31999983	-1.16489100
28.35999983	-1.20960100
28.39999983	-1.25446300
28.43999983	-1.29917300
28.47999983	-1.29917300
28.51999983	-1.29917300
28.55999983	-1.29917300
28.59999983	-1.29917300
28.63999983	-1.25446300
28.67999983	-1.20960100
28.71999983	-1.16489100
28.75999983	-1.12002900
28.79999982	-1.03045700
28.83999982	-0.94088570
28.87999982	-0.89617600
28.91999982	-0.76174200
28.95999982	-0.67232280
28.99999982	-0.58275090
29.03999982	-0.44831690
29.07999982	-0.35874510
29.11999982	-0.22446360
29.15999982	-0.09002960
29.19999982	-0.00061037
29.23999982	0.13367110
29.27999982	0.26795250
29.31999982	0.35752430
29.35999982	0.49195840
29.39999982	0.58153020
29.43999982	0.71581160
29.47999982	0.80538340
29.51999982	0.89495530
29.55999982	0.98452710
29.59999982	1.07409900
29.63999982	1.11880900
29.67999982	1.20838000
29.71999982	1.25324300
29.75999982	1.25324300
29.79999982	1.29795200
29.83999982	1.34281400
29.87999982	1.29795200
29.91999982	1.29795200
29.95999982	1.25324300
29.99999982	1.25324300
30.03999982	1.20838000
30.07999982	1.16367100
30.11999982	1.07409900
30.15999982	1.02923700
30.19999982	0.93966490
30.23999982	0.85009310
30.27999982	0.71581160
30.31999982	0.67110200
30.35999982	0.53666800
30.39999982	0.40238650
30.43999982	0.31281470
30.47999981	0.17838070
30.51999981	0.04409925
30.55999981	-0.04531999
30.59999981	-0.17960140
30.63999981	-0.31403550
30.67999981	-0.40360730
30.71999981	-0.53788870
30.75999981	-0.62746050
30.79999981	-0.71703240
30.83999981	-0.80660420
30.87999981	-0.89617600
30.91999981	-0.98574790
30.95999981	-1.03045700
30.99999981	-1.07532000
31.03999981	-1.12002900
31.07999981	-1.20960100
31.11999981	-1.20960100
31.15999981	-1.25446300
31.19999981	-1.25446300
31.23999981	-1.25446300
31.27999981	-1.25446300
31.31999981	-1.20960100
31.35999981	-1.16489100
31.39999981	-1.07532000
31.43999981	-1.07532000
31.47999981	-0.98574790
31.51999981	-0.89617600
31.55999981	-0.80660420
31.59999981	-0.71703240
31.63999981	-0.62746050
31.67999981	-0.53788870
31.71999981	-0.40360730
31.75999981	-0.31403550
31.79999981	-0.17960140
31.83999981	-0.09002960
31.87999981	-0.00061037
31.91999981	0.13367110
31.95999981	0.26795250
31.99999981	0.35752430
32.03999981	0.49195840
32.07999981	0.62623980
32.11999980	0.67110200
32.15999980	0.76052120
32.19999980	0.85009310
32.23999980	0.93966490
32.27999980	1.02923700
32.31999980	1.07409900
32.35999980	1.11880900
32.39999980	1.20838000
32.43999980	1.20838000
32.47999980	1.25324300
32.51999980	1.25324300
32.55999980	1.25324300
32.59999980	1.25324300
32.63999980	1.20838000
32.67999980	1.20838000
32.71999980	1.16367100
32.75999980	1.07409900
32.79999980	1.02923700
32.83999980	0.93966490
32.87999980	0.89495530
32.91999980	0.80538340
32.95999980	0.71581160
