Time	Channel A
(us)	(V)

0.00000000	1.34281400
0.04000000	1.25324300
0.08000000	1.16367100
0.12000000	1.07409900
0.16000000	0.93966490
0.20000000	0.80538340
0.24000000	0.67110200
0.28000000	0.53666800
0.32000000	0.40238650
0.36000000	0.26795250
0.40000000	0.13367110
0.44000000	-0.00061037
0.48000000	-0.17960140
0.52000000	-0.31403550
0.56000000	-0.44831690
0.60000000	-0.58275090
0.64000000	-0.71703240
0.68000000	-0.85131380
0.72000000	-0.98574790
0.76000000	-1.07532000
0.80000000	-1.16489100
0.83999999	-1.25446300
0.87999999	-1.34403500
0.91999999	-1.43360700
0.95999999	-1.47831700
0.99999999	-1.47831700
1.03999999	-1.52302600
1.07999999	-1.52302600
1.11999999	-1.52302600
1.15999999	-1.52302600
1.19999999	-1.47831700
1.23999999	-1.43360700
1.27999999	-1.38874500
1.31999999	-1.29917300
1.35999999	-1.25446300
1.39999999	-1.12002900
1.43999999	-1.03045700
1.47999999	-0.94088570
1.51999999	-0.80660420
1.55999999	-0.71703240
1.59999999	-0.58275090
1.63999999	-0.40360730
1.67999999	-0.31403550
1.71999999	-0.17960140
1.75999999	-0.00061037
1.79999999	0.13367110
1.83999999	0.26795250
1.87999999	0.40238650
1.91999999	0.53666800
1.95999999	0.67110200
1.99999999	0.80538340
2.03999999	0.89495530
2.07999999	1.02923700
2.11999999	1.11880900
2.15999999	1.20838000
2.19999999	1.29795200
2.23999999	1.38752400
2.27999999	1.43238600
2.31999999	1.47709600
2.35999999	1.52180600
2.39999999	1.52180600
2.43999999	1.52180600
2.47999998	1.52180600
2.51999998	1.47709600
2.55999998	1.43238600
2.59999998	1.43238600
2.63999998	1.34281400
2.67999998	1.25324300
2.71999998	1.20838000
2.75999998	1.11880900
2.79999998	0.98452710
2.83999998	0.89495530
2.87999998	0.76052120
2.91999998	0.67110200
2.95999998	0.53666800
2.99999998	0.35752430
3.03999998	0.26795250
3.07999998	0.13367110
3.11999998	-0.00061037
3.15999998	-0.17960140
3.19999998	-0.31403550
3.23999998	-0.40360730
3.27999998	-0.53788870
3.31999998	-0.71703240
3.35999998	-0.80660420
3.39999998	-0.94088570
3.43999998	-1.03045700
3.47999998	-1.12002900
3.51999998	-1.20960100
3.55999998	-1.25446300
3.59999998	-1.34403500
3.63999998	-1.38874500
3.67999998	-1.43360700
3.71999998	-1.43360700
3.75999998	-1.43360700
3.79999998	-1.43360700
3.83999998	-1.43360700
3.87999998	-1.43360700
3.91999998	-1.34403500
3.95999998	-1.29917300
3.99999998	-1.25446300
4.03999998	-1.16489100
4.07999998	-1.07532000
4.11999997	-0.98574790
4.15999997	-0.89617600
4.19999997	-0.76174200
4.23999997	-0.62746050
4.27999997	-0.53788870
4.31999997	-0.40360730
4.35999997	-0.26917330
4.39999997	-0.13489180
4.43999997	-0.00061037
4.47999997	0.13367110
4.51999997	0.26795250
4.55999997	0.35752430
4.59999997	0.53666800
4.63999997	0.62623980
4.67999997	0.76052120
4.71999997	0.89495530
4.75999997	0.98452710
4.79999997	1.07409900
4.83999997	1.16367100
4.87999997	1.25324300
4.91999997	1.29795200
4.95999997	1.38752400
4.99999997	1.38752400
5.03999997	1.43238600
5.07999997	1.43238600
5.11999997	1.43238600
5.15999997	1.43238600
5.19999997	1.43238600
5.23999997	1.38752400
5.27999997	1.29795200
5.31999997	1.29795200
5.35999997	1.20838000
5.39999997	1.11880900
5.43999997	1.02923700
5.47999997	0.93966490
5.51999997	0.80538340
5.55999997	0.71581160
5.59999997	0.62623980
5.63999997	0.49195840
5.67999997	0.35752430
5.71999997	0.26795250
5.75999996	0.08880886
5.79999996	-0.04531999
5.83999996	-0.17960140
5.87999996	-0.26917330
5.91999996	-0.40360730
5.95999996	-0.53788870
5.99999996	-0.67232280
6.03999996	-0.76174200
6.07999996	-0.89617600
6.11999996	-0.98574790
6.15999996	-1.07532000
6.19999996	-1.12002900
6.23999996	-1.20960100
6.27999996	-1.25446300
6.31999996	-1.29917300
6.35999996	-1.34403500
6.39999996	-1.38874500
6.43999996	-1.38874500
6.47999996	-1.38874500
6.51999996	-1.34403500
6.55999996	-1.34403500
6.59999996	-1.29917300
6.63999996	-1.25446300
6.67999996	-1.16489100
6.71999996	-1.07532000
6.75999996	-1.03045700
6.79999996	-0.94088570
6.83999996	-0.80660420
6.87999996	-0.71703240
6.91999996	-0.62746050
6.95999996	-0.49317910
6.99999996	-0.35874510
7.03999996	-0.22446360
7.07999996	-0.13489180
7.11999996	-0.00061037
7.15999996	0.13367110
7.19999996	0.26795250
7.23999996	0.35752430
7.27999996	0.53666800
7.31999996	0.62623980
7.35999996	0.71581160
7.39999996	0.85009310
7.43999995	0.93966490
7.47999995	1.02923700
7.51999995	1.11880900
7.55999995	1.20838000
7.59999995	1.25324300
7.63999995	1.34281400
7.67999995	1.34281400
7.71999995	1.34281400
7.75999995	1.38752400
7.79999995	1.38752400
7.83999995	1.38752400
7.87999995	1.34281400
7.91999995	1.34281400
7.95999995	1.25324300
7.99999995	1.20838000
8.03999995	1.16367100
8.07999995	1.07409900
8.11999995	0.98452710
8.15999995	0.89495530
8.19999995	0.80538340
8.23999995	0.67110200
8.27999995	0.58153020
8.31999995	0.44709620
8.35999995	0.31281470
8.39999995	0.22324290
8.43999995	0.04409925
8.47999995	-0.04531999
8.51999995	-0.17960140
8.55999995	-0.26917330
8.59999995	-0.40360730
8.63999995	-0.53788870
8.67999995	-0.62746050
8.71999995	-0.71703240
8.75999995	-0.80660420
8.79999995	-0.94088570
8.83999995	-1.03045700
8.87999995	-1.07532000
8.91999995	-1.12002900
8.95999995	-1.20960100
8.99999995	-1.25446300
9.03999995	-1.29917300
9.07999994	-1.29917300
9.11999994	-1.29917300
9.15999994	-1.29917300
9.19999994	-1.29917300
9.23999994	-1.25446300
9.27999994	-1.25446300
9.31999994	-1.16489100
9.35999994	-1.12002900
9.39999994	-1.03045700
9.43999994	-0.98574790
9.47999994	-0.89617600
9.51999994	-0.76174200
9.55999994	-0.67232280
9.59999994	-0.58275090
9.63999994	-0.49317910
9.67999994	-0.35874510
9.71999994	-0.22446360
9.75999994	-0.09002960
9.79999994	-0.00061037
9.83999994	0.13367110
9.87999994	0.26795250
9.91999994	0.35752430
9.95999994	0.49195840
9.99999994	0.58153020
10.03999994	0.71581160
10.07999994	0.80538340
10.11999994	0.89495530
10.15999994	0.98452710
10.19999994	1.07409900
10.23999994	1.16367100
10.27999994	1.20838000
10.31999994	1.25324300
10.35999994	1.25324300
10.39999994	1.29795200
10.43999994	1.34281400
10.47999994	1.29795200
10.51999994	1.29795200
10.55999994	1.29795200
10.59999994	1.25324300
10.63999994	1.20838000
10.67999994	1.16367100
10.71999993	1.07409900
10.75999993	1.02923700
10.79999993	0.93966490
10.83999993	0.85009310
10.87999993	0.71581160
10.91999993	0.62623980
10.95999993	0.53666800
10.99999993	0.44709620
11.03999993	0.31281470
11.07999993	0.17838070
11.11999993	0.08880886
11.15999993	-0.04531999
11.19999993	-0.17960140
11.23999993	-0.26917330
11.27999993	-0.40360730
11.31999993	-0.49317910
11.35999993	-0.62746050
11.39999993	-0.71703240
11.43999993	-0.80660420
11.47999993	-0.89617600
11.51999993	-0.94088570
11.55999993	-1.03045700
11.59999993	-1.07532000
11.63999993	-1.12002900
11.67999993	-1.20960100
11.71999993	-1.25446300
11.75999993	-1.25446300
11.79999993	-1.25446300
11.83999993	-1.25446300
11.87999993	-1.25446300
11.91999993	-1.20960100
11.95999993	-1.16489100
11.99999993	-1.12002900
12.03999993	-1.07532000
12.07999993	-0.98574790
12.11999993	-0.89617600
12.15999993	-0.85131380
12.19999993	-0.71703240
12.23999993	-0.67232280
12.27999993	-0.53788870
12.31999993	-0.44831690
12.35999992	-0.31403550
12.39999992	-0.17960140
12.43999992	-0.09002960
12.47999992	-0.00061037
12.51999992	0.13367110
12.55999992	0.22324290
12.59999992	0.35752430
12.63999992	0.49195840
12.67999992	0.58153020
12.71999992	0.67110200
12.75999992	0.76052120
12.79999992	0.85009310
12.83999992	0.93966490
12.87999992	1.02923700
12.91999992	1.07409900
12.95999992	1.11880900
12.99999992	1.20838000
13.03999992	1.20838000
13.07999992	1.25324300
13.11999992	1.25324300
13.15999992	1.25324300
13.19999992	1.25324300
13.23999992	1.25324300
13.27999992	1.20838000
13.31999992	1.16367100
13.35999992	1.07409900
13.39999992	1.02923700
13.43999992	0.93966490
13.47999992	0.85009310
13.51999992	0.80538340
13.55999992	0.71581160
13.59999992	0.58153020
13.63999992	0.53666800
13.67999992	0.40238650
13.71999992	0.26795250
13.75999992	0.17838070
13.79999992	0.04409925
13.83999992	-0.04531999
13.87999992	-0.17960140
13.91999992	-0.26917330
13.95999992	-0.35874510
13.99999991	-0.49317910
14.03999991	-0.58275090
14.07999991	-0.67232280
14.11999991	-0.76174200
14.15999991	-0.89617600
14.19999991	-0.89617600
14.23999991	-0.98574790
14.27999991	-1.07532000
14.31999991	-1.12002900
14.35999991	-1.12002900
14.39999991	-1.16489100
14.43999991	-1.16489100
14.47999991	-1.20960100
14.51999991	-1.20960100
14.55999991	-1.16489100
14.59999991	-1.16489100
14.63999991	-1.07532000
14.67999991	-1.07532000
14.71999991	-0.98574790
14.75999991	-0.94088570
14.79999991	-0.89617600
14.83999991	-0.80660420
14.87999991	-0.71703240
14.91999991	-0.58275090
14.95999991	-0.53788870
14.99999991	-0.40360730
15.03999991	-0.26917330
15.07999991	-0.17960140
15.11999991	-0.09002960
15.15999991	0.04409925
15.19999991	0.13367110
15.23999991	0.26795250
15.27999991	0.35752430
15.31999991	0.44709620
15.35999991	0.53666800
15.39999991	0.67110200
15.43999991	0.71581160
15.47999991	0.85009310
15.51999991	0.89495530
15.55999991	0.98452710
15.59999991	1.02923700
15.63999990	1.07409900
15.67999990	1.11880900
15.71999990	1.16367100
15.75999990	1.16367100
15.79999990	1.20838000
15.83999990	1.20838000
15.87999990	1.20838000
15.91999990	1.20838000
15.95999990	1.16367100
15.99999990	1.07409900
16.03999990	1.02923700
16.07999990	0.98452710
16.11999990	0.89495530
16.15999990	0.85009310
16.19999990	0.76052120
16.23999990	0.67110200
16.27999990	0.53666800
16.31999990	0.49195840
16.35999990	0.35752430
16.39999990	0.26795250
16.43999990	0.17838070
16.47999990	0.04409925
16.51999990	-0.04531999
16.55999990	-0.17960140
16.59999990	-0.26917330
16.63999990	-0.35874510
16.67999990	-0.44831690
16.71999990	-0.58275090
16.75999990	-0.67232280
16.79999990	-0.76174200
16.83999990	-0.80660420
16.87999990	-0.89617600
16.91999990	-0.94088570
16.95999990	-0.98574790
16.99999990	-1.03045700
17.03999990	-1.07532000
17.07999990	-1.07532000
17.11999990	-1.12002900
17.15999990	-1.12002900
17.19999990	-1.12002900
17.23999990	-1.12002900
17.27999989	-1.07532000
17.31999989	-1.03045700
17.35999989	-0.98574790
17.39999989	-0.94088570
17.43999989	-0.89617600
17.47999989	-0.80660420
17.51999989	-0.71703240
17.55999989	-0.67232280
17.59999989	-0.58275090
17.63999989	-0.44831690
17.67999989	-0.35874510
17.71999989	-0.26917330
17.75999989	-0.17960140
17.79999989	-0.04531999
17.83999989	0.04409925
17.87999989	0.13367110
17.91999989	0.26795250
17.95999989	0.35752430
17.99999989	0.44709620
18.03999989	0.53666800
18.07999989	0.67110200
18.11999989	0.71581160
18.15999989	0.80538340
18.19999989	0.89495530
18.23999989	0.93966490
18.27999989	0.98452710
18.31999989	1.02923700
18.35999989	1.07409900
18.39999989	1.11880900
18.43999989	1.11880900
18.47999989	1.16367100
18.51999989	1.11880900
18.55999989	1.11880900
18.59999989	1.11880900
18.63999989	1.07409900
18.67999989	1.02923700
18.71999989	0.98452710
18.75999989	0.89495530
18.79999989	0.85009310
18.83999989	0.80538340
18.87999989	0.71581160
18.91999989	0.67110200
18.95999988	0.53666800
18.99999988	0.44709620
19.03999988	0.35752430
19.07999988	0.22324290
19.11999988	0.13367110
19.15999988	0.04409925
19.19999988	-0.04531999
19.23999988	-0.17960140
19.27999988	-0.26917330
19.31999988	-0.35874510
19.35999988	-0.44831690
19.39999988	-0.53788870
19.43999988	-0.62746050
19.47999988	-0.71703240
19.51999988	-0.76174200
19.55999988	-0.85131380
19.59999988	-0.89617600
19.63999988	-0.94088570
19.67999988	-0.98574790
19.71999988	-1.03045700
19.75999988	-1.07532000
19.79999988	-1.07532000
19.83999988	-1.07532000
19.87999988	-1.07532000
19.91999988	-1.07532000
19.95999988	-1.03045700
19.99999988	-0.98574790
20.03999988	-0.94088570
20.07999988	-0.89617600
20.11999988	-0.85131380
20.15999988	-0.76174200
20.19999988	-0.71703240
20.23999988	-0.62746050
20.27999988	-0.53788870
20.31999988	-0.40360730
20.35999988	-0.35874510
20.39999988	-0.26917330
20.43999988	-0.17960140
20.47999988	-0.04531999
20.51999988	0.04409925
20.55999988	0.13367110
20.59999987	0.26795250
20.63999987	0.35752430
20.67999987	0.44709620
20.71999987	0.53666800
20.75999987	0.62623980
20.79999987	0.71581160
20.83999987	0.76052120
20.87999987	0.80538340
20.91999987	0.89495530
20.95999987	0.93966490
20.99999987	1.02923700
21.03999987	1.07409900
21.07999987	1.07409900
21.11999987	1.07409900
21.15999987	1.07409900
21.19999987	1.07409900
21.23999987	1.07409900
21.27999987	1.07409900
21.31999987	1.02923700
21.35999987	0.98452710
21.39999987	0.93966490
21.43999987	0.89495530
21.47999987	0.80538340
21.51999987	0.71581160
21.55999987	0.67110200
21.59999987	0.58153020
21.63999987	0.53666800
21.67999987	0.40238650
21.71999987	0.31281470
21.75999987	0.22324290
21.79999987	0.13367110
21.83999987	-0.00061037
21.87999987	-0.04531999
21.91999987	-0.17960140
21.95999987	-0.26917330
21.99999987	-0.35874510
22.03999987	-0.44831690
22.07999987	-0.53788870
22.11999987	-0.58275090
22.15999987	-0.71703240
22.19999987	-0.76174200
22.23999986	-0.80660420
22.27999986	-0.85131380
22.31999986	-0.94088570
22.35999986	-0.94088570
22.39999986	-0.98574790
22.43999986	-1.03045700
22.47999986	-1.03045700
22.51999986	-1.03045700
22.55999986	-1.03045700
22.59999986	-1.03045700
22.63999986	-0.98574790
22.67999986	-0.94088570
22.71999986	-0.89617600
22.75999986	-0.85131380
22.79999986	-0.80660420
22.83999986	-0.71703240
22.87999986	-0.67232280
22.91999986	-0.58275090
22.95999986	-0.49317910
22.99999986	-0.40360730
23.03999986	-0.31403550
23.07999986	-0.22446360
23.11999986	-0.13489180
23.15999986	-0.04531999
23.19999986	0.04409925
23.23999986	0.13367110
23.27999986	0.26795250
23.31999986	0.35752430
23.35999986	0.40238650
23.39999986	0.53666800
23.43999986	0.58153020
23.47999986	0.67110200
23.51999986	0.71581160
23.55999986	0.80538340
23.59999986	0.85009310
23.63999986	0.89495530
23.67999986	0.98452710
23.71999986	1.02923700
23.75999986	1.02923700
23.79999986	1.02923700
23.83999986	1.07409900
23.87999985	1.07409900
23.91999985	1.11880900
23.95999985	1.16367100
23.99999985	1.25324300
24.03999985	1.29795200
24.07999985	1.34281400
24.11999985	1.43238600
24.15999985	1.43238600
24.19999985	1.43238600
24.23999985	1.43238600
24.27999985	1.38752400
24.31999985	1.25324300
24.35999985	1.11880900
24.39999985	0.89495530
24.43999985	0.71581160
24.47999985	0.44709620
24.51999985	0.17838070
24.55999985	-0.09002960
24.59999985	-0.35874510
24.63999985	-0.62746050
24.67999985	-0.89617600
24.71999985	-1.07532000
24.75999985	-1.25446300
24.79999985	-1.38874500
24.83999985	-1.47831700
24.87999985	-1.56788800
24.91999985	-1.56788800
24.95999985	-1.56788800
24.99999985	-1.52302600
25.03999985	-1.47831700
25.07999985	-1.43360700
25.11999985	-1.34403500
25.15999985	-1.25446300
25.19999985	-1.20960100
25.23999985	-1.16489100
25.27999985	-1.12002900
25.31999985	-1.07532000
25.35999985	-1.07532000
25.39999985	-1.12002900
25.43999985	-1.12002900
25.47999985	-1.12002900
25.51999984	-1.12002900
25.55999984	-1.12002900
25.59999984	-1.12002900
25.63999984	-1.07532000
25.67999984	-0.98574790
25.71999984	-0.85131380
25.75999984	-0.71703240
25.79999984	-0.58275090
25.83999984	-0.35874510
25.87999984	-0.17960140
25.91999984	0.08880886
25.95999984	0.31281470
25.99999984	0.53666800
26.03999984	0.80538340
26.07999984	1.02923700
26.11999984	1.25324300
26.15999984	1.47709600
26.19999984	1.74581100
26.23999984	1.96966500
26.27999984	2.23838000
26.31999984	2.46223300
26.35999984	2.68623900
26.39999984	2.77581100
26.43999984	2.86538300
26.47999984	2.91009200
26.51999984	2.86538300
26.55999984	2.68623900
26.59999984	2.50709600
26.63999984	2.23838000
26.67999984	1.92495500
26.71999984	1.56666800
26.75999984	1.25324300
26.79999984	0.89495530
26.83999984	0.53666800
26.87999984	0.17838070
26.91999984	-0.09002960
26.95999984	-0.31403550
26.99999984	-0.53788870
27.03999984	-0.67232280
27.07999984	-0.76174200
27.11999984	-0.85131380
27.15999983	-0.85131380
27.19999983	-0.89617600
27.23999983	-0.89617600
27.27999983	-0.89617600
27.31999983	-0.89617600
27.35999983	-0.94088570
27.39999983	-1.03045700
27.43999983	-1.07532000
27.47999983	-1.20960100
27.51999983	-1.38874500
27.55999983	-1.52302600
27.59999983	-1.74703200
27.63999983	-1.92617600
27.67999983	-2.10531900
27.71999983	-2.23960100
27.75999983	-2.41874500
27.79999983	-2.50831600
27.83999983	-2.55302600
27.87999983	-2.50831600
27.91999983	-2.46345400
27.95999983	-2.32917300
27.99999983	-2.10531900
28.03999983	-1.88131400
28.07999983	-1.61259800
28.11999983	-1.29917300
28.15999983	-0.98574790
28.19999983	-0.67232280
28.23999983	-0.31403550
28.27999983	-0.04531999
28.31999983	0.26795250
28.35999983	0.53666800
28.39999983	0.71581160
28.43999983	0.85009310
28.47999983	1.02923700
28.51999983	1.07409900
28.55999983	1.16367100
28.59999983	1.20838000
28.63999983	1.25324300
28.67999983	1.34281400
28.71999983	1.43238600
28.75999983	1.47709600
28.79999982	1.65624000
28.83999982	1.79052100
28.87999982	1.96966500
28.91999982	2.14880800
28.95999982	2.32795200
28.99999982	2.50709600
29.03999982	2.64137700
29.07999982	2.68623900
29.11999982	2.73094900
29.15999982	2.68623900
29.19999982	2.64137700
29.23999982	2.50709600
29.27999982	2.28309000
29.31999982	2.05923700
29.35999982	1.74581100
29.39999982	1.43238600
29.43999982	1.11880900
29.47999982	0.71581160
29.51999982	0.40238650
29.55999982	0.04409925
29.59999982	-0.22446360
29.63999982	-0.53788870
29.67999982	-0.71703240
29.71999982	-0.94088570
29.75999982	-1.07532000
29.79999982	-1.16489100
29.83999982	-1.25446300
29.87999982	-1.34403500
29.91999982	-1.38874500
29.95999982	-1.43360700
29.99999982	-1.43360700
30.03999982	-1.43360700
30.07999982	-1.52302600
30.11999982	-1.56788800
30.15999982	-1.65746000
30.19999982	-1.74703200
30.23999982	-1.83660400
30.27999982	-1.97088500
30.31999982	-2.06045700
30.35999982	-2.19473900
30.39999982	-2.28431000
30.43999982	-2.37388200
30.47999981	-2.37388200
30.51999981	-2.37388200
30.55999981	-2.32917300
30.59999981	-2.19473900
30.63999981	-2.06045700
30.67999981	-1.88131400
30.71999981	-1.65746000
30.75999981	-1.38874500
30.79999981	-1.07532000
30.83999981	-0.76174200
30.87999981	-0.40360730
30.91999981	-0.13489180
30.95999981	0.17838070
30.99999981	0.49195840
31.03999981	0.71581160
31.07999981	0.98452710
31.11999981	1.16367100
31.15999981	1.34281400
31.19999981	1.43238600
31.23999981	1.52180600
31.27999981	1.61137700
31.31999981	1.61137700
31.35999981	1.70094900
31.39999981	1.74581100
31.43999981	1.74581100
31.47999981	1.74581100
31.51999981	1.79052100
31.55999981	1.83538300
31.59999981	1.92495500
31.63999981	1.96966500
31.67999981	2.01452700
31.71999981	2.05923700
31.75999981	2.10409900
31.79999981	2.14880800
31.83999981	2.14880800
31.87999981	2.14880800
31.91999981	2.10409900
31.95999981	2.01452700
31.99999981	1.92495500
32.03999981	1.74581100
32.07999981	1.52180600
32.11999980	1.29795200
32.15999980	1.07409900
32.19999980	0.80538340
32.23999980	0.49195840
32.27999980	0.17838070
32.31999980	-0.09002960
32.35999980	-0.35874510
32.39999980	-0.62746050
32.43999980	-0.89617600
32.47999980	-1.07532000
32.51999980	-1.29917300
32.55999980	-1.43360700
32.59999980	-1.56788800
32.63999980	-1.65746000
32.67999980	-1.74703200
32.71999980	-1.79174200
32.75999980	-1.79174200
32.79999980	-1.83660400
32.83999980	-1.83660400
32.87999980	-1.88131400
32.91999980	-1.88131400
32.95999980	-1.88131400
