Time,Channel A
(us),(V)

0.00000000,-1.52302600
0.04000000,-1.43360700
0.08000000,-1.29917300
0.12000000,-1.16489100
0.16000000,-1.07532000
0.20000000,-0.89617600
0.24000000,-0.76174200
0.28000000,-0.62746050
0.32000000,-0.44831690
0.36000000,-0.31403550
0.40000000,-0.17960140
0.44000000,-0.00061037
0.48000000,0.17838070
0.52000000,0.35752430
0.56000000,0.58153020
0.60000000,0.71581160
0.64000000,0.93966490
0.68000000,1.11880900
0.72000000,1.25324300
0.76000000,1.43238600
0.80000000,1.56666800
0.83999999,1.74581100
0.87999999,1.83538300
0.91999999,1.92495500
0.95999999,1.96966500
0.99999999,2.05923700
1.03999999,2.05923700
1.07999999,2.05923700
1.11999999,2.05923700
1.15999999,2.01452700
1.19999999,1.92495500
1.23999999,1.83538300
1.27999999,1.79052100
1.31999999,1.65624000
1.35999999,1.56666800
1.39999999,1.43238600
1.43999999,1.29795200
1.47999999,1.16367100
1.51999999,0.98452710
1.55999999,0.85009310
1.59999999,0.67110200
1.63999999,0.53666800
1.67999999,0.40238650
1.71999999,0.22324290
1.75999999,0.04409925
1.79999999,-0.09002960
1.83999999,-0.26917330
1.87999999,-0.44831690
1.91999999,-0.58275090
1.95999999,-0.76174200
1.99999999,-0.94088570
2.03999999,-1.12002900
2.07999999,-1.25446300
2.11999999,-1.38874500
2.15999999,-1.52302600
2.19999999,-1.65746000
2.23999999,-1.74703200
2.27999999,-1.83660400
2.31999999,-1.88131400
2.35999999,-1.97088500
2.39999999,-1.97088500
2.43999999,-1.97088500
2.47999998,-1.92617600
2.51999998,-1.88131400
2.55999998,-1.83660400
2.59999998,-1.74703200
2.63999998,-1.65746000
2.67999998,-1.52302600
2.71999998,-1.43360700
2.75999998,-1.29917300
2.79999998,-1.16489100
2.83999998,-0.98574790
2.87999998,-0.89617600
2.91999998,-0.71703240
2.95999998,-0.53788870
2.99999998,-0.35874510
3.03999998,-0.22446360
3.07999998,-0.04531999
3.11999998,0.08880886
3.15999998,0.26795250
3.19999998,0.44709620
3.23999998,0.58153020
3.27999998,0.71581160
3.31999998,0.89495530
3.35999998,1.07409900
3.39999998,1.20838000
3.43999998,1.34281400
3.47999998,1.43238600
3.51999998,1.56666800
3.55999998,1.70094900
3.59999998,1.79052100
3.63999998,1.83538300
3.67999998,1.88009300
3.71999998,1.92495500
3.75999998,1.92495500
3.79999998,1.96966500
3.83999998,1.92495500
3.87999998,1.88009300
3.91999998,1.79052100
3.95999998,1.74581100
3.99999998,1.61137700
4.03999998,1.52180600
4.07999998,1.38752400
4.11999997,1.25324300
4.15999997,1.11880900
4.19999997,0.93966490
4.23999997,0.80538340
4.27999997,0.67110200
4.31999997,0.49195840
4.35999997,0.31281470
4.39999997,0.17838070
4.43999997,-0.00061037
4.47999997,-0.17960140
4.51999997,-0.35874510
4.55999997,-0.49317910
4.59999997,-0.62746050
4.63999997,-0.76174200
4.67999997,-0.89617600
4.71999997,-1.07532000
4.75999997,-1.20960100
4.79999997,-1.29917300
4.83999997,-1.43360700
4.87999997,-1.52302600
4.91999997,-1.61259800
4.95999997,-1.70217000
4.99999997,-1.79174200
5.03999997,-1.79174200
5.07999997,-1.83660400
5.11999997,-1.83660400
5.15999997,-1.83660400
5.19999997,-1.79174200
5.23999997,-1.74703200
5.27999997,-1.70217000
5.31999997,-1.61259800
5.35999997,-1.52302600
5.39999997,-1.38874500
5.43999997,-1.25446300
5.47999997,-1.16489100
5.51999997,-0.98574790
5.55999997,-0.85131380
5.59999997,-0.67232280
5.63999997,-0.53788870
5.67999997,-0.35874510
5.71999997,-0.17960140
5.75999996,-0.04531999
5.79999996,0.13367110
5.83999996,0.31281470
5.87999996,0.44709620
5.91999996,0.58153020
5.95999996,0.76052120
5.99999996,0.89495530
6.03999996,1.02923700
6.07999996,1.16367100
6.11999996,1.29795200
6.15999996,1.38752400
6.19999996,1.47709600
6.23999996,1.56666800
6.27999996,1.65624000
6.31999996,1.74581100
6.35999996,1.79052100
6.39999996,1.79052100
6.43999996,1.83538300
6.47999996,1.79052100
6.51999996,1.79052100
6.55999996,1.79052100
6.59999996,1.70094900
6.63999996,1.61137700
6.67999996,1.56666800
6.71999996,1.43238600
6.75999996,1.34281400
6.79999996,1.25324300
6.83999996,1.07409900
6.87999996,0.93966490
6.91999996,0.80538340
6.95999996,0.67110200
6.99999996,0.49195840
7.03999996,0.35752430
7.07999996,0.13367110
7.11999996,-0.00061037
7.15999996,-0.17960140
7.19999996,-0.35874510
7.23999996,-0.49317910
7.27999996,-0.62746050
7.31999996,-0.76174200
7.35999996,-0.89617600
7.39999996,-1.03045700
7.43999995,-1.16489100
7.47999995,-1.29917300
7.51999995,-1.38874500
7.55999995,-1.47831700
7.59999995,-1.52302600
7.63999995,-1.61259800
7.67999995,-1.65746000
7.71999995,-1.65746000
7.75999995,-1.70217000
7.79999995,-1.70217000
7.83999995,-1.70217000
7.87999995,-1.65746000
7.91999995,-1.65746000
7.95999995,-1.56788800
7.99999995,-1.52302600
8.03999995,-1.43360700
8.07999995,-1.34403500
8.11999995,-1.20960100
8.15999995,-1.07532000
8.19999995,-0.94088570
8.23999995,-0.80660420
8.27999995,-0.67232280
8.31999995,-0.53788870
8.35999995,-0.35874510
8.39999995,-0.17960140
8.43999995,-0.00061037
8.47999995,0.13367110
8.51999995,0.31281470
8.55999995,0.44709620
8.59999995,0.58153020
8.63999995,0.71581160
8.67999995,0.89495530
8.71999995,1.02923700
8.75999995,1.11880900
8.79999995,1.25324300
8.83999995,1.34281400
8.87999995,1.43238600
8.91999995,1.52180600
8.95999995,1.61137700
8.99999995,1.61137700
9.03999995,1.70094900
9.07999994,1.70094900
9.11999994,1.70094900
9.15999994,1.74581100
9.19999994,1.70094900
9.23999994,1.65624000
9.27999994,1.61137700
9.31999994,1.56666800
9.35999994,1.43238600
9.39999994,1.38752400
9.43999994,1.25324300
9.47999994,1.16367100
9.51999994,1.07409900
9.55999994,0.89495530
9.59999994,0.76052120
9.63999994,0.62623980
9.67999994,0.44709620
9.71999994,0.31281470
9.75999994,0.13367110
9.79999994,-0.00061037
9.83999994,-0.17960140
9.87999994,-0.31403550
9.91999994,-0.44831690
9.95999994,-0.62746050
9.99999994,-0.71703240
10.03999994,-0.89617600
10.07999994,-1.03045700
10.11999994,-1.12002900
10.15999994,-1.25446300
10.19999994,-1.29917300
10.23999994,-1.43360700
10.27999994,-1.47831700
10.31999994,-1.52302600
10.35999994,-1.56788800
10.39999994,-1.61259800
10.43999994,-1.61259800
10.47999994,-1.61259800
10.51999994,-1.61259800
10.55999994,-1.61259800
10.59999994,-1.56788800
10.63999994,-1.47831700
10.67999994,-1.43360700
10.71999993,-1.34403500
10.75999993,-1.25446300
10.79999993,-1.12002900
10.83999993,-1.03045700
10.87999993,-0.89617600
10.91999993,-0.76174200
10.95999993,-0.62746050
10.99999993,-0.53788870
11.03999993,-0.35874510
11.07999993,-0.17960140
11.11999993,-0.04531999
11.15999993,0.13367110
11.19999993,0.26795250
11.23999993,0.44709620
11.27999993,0.58153020
11.31999993,0.71581160
11.35999993,0.85009310
11.39999993,0.98452710
11.43999993,1.07409900
11.47999993,1.20838000
11.51999993,1.29795200
11.55999993,1.38752400
11.59999993,1.43238600
11.63999993,1.52180600
11.67999993,1.56666800
11.71999993,1.61137700
11.75999993,1.61137700
11.79999993,1.61137700
11.83999993,1.61137700
11.87999993,1.61137700
11.91999993,1.56666800
11.95999993,1.52180600
11.99999993,1.47709600
12.03999993,1.38752400
12.07999993,1.29795200
12.11999993,1.20838000
12.15999993,1.07409900
12.19999993,0.98452710
12.23999993,0.85009310
12.27999993,0.71581160
12.31999993,0.58153020
12.35999992,0.44709620
12.39999992,0.31281470
12.43999992,0.13367110
12.47999992,-0.00061037
12.51999992,-0.17960140
12.55999992,-0.31403550
12.59999992,-0.44831690
12.63999992,-0.58275090
12.67999992,-0.71703240
12.71999992,-0.85131380
12.75999992,-0.94088570
12.79999992,-1.07532000
12.83999992,-1.16489100
12.87999992,-1.25446300
12.91999992,-1.34403500
12.95999992,-1.43360700
12.99999992,-1.47831700
13.03999992,-1.47831700
13.07999992,-1.52302600
13.11999992,-1.56788800
13.15999992,-1.56788800
13.19999992,-1.52302600
13.23999992,-1.52302600
13.27999992,-1.47831700
13.31999992,-1.43360700
13.35999992,-1.34403500
13.39999992,-1.25446300
13.43999992,-1.16489100
13.47999992,-1.07532000
13.51999992,-0.98574790
13.55999992,-0.85131380
13.59999992,-0.71703240
13.63999992,-0.58275090
13.67999992,-0.44831690
13.71999992,-0.31403550
13.75999992,-0.17960140
13.79999992,-0.04531999
13.83999992,0.13367110
13.87999992,0.26795250
13.91999992,0.40238650
13.95999992,0.53666800
13.99999991,0.67110200
14.03999991,0.80538340
14.07999991,0.89495530
14.11999991,1.07409900
14.15999991,1.16367100
14.19999991,1.25324300
14.23999991,1.34281400
14.27999991,1.38752400
14.31999991,1.43238600
14.35999991,1.52180600
14.39999991,1.52180600
14.43999991,1.56666800
14.47999991,1.56666800
14.51999991,1.56666800
14.55999991,1.52180600
14.59999991,1.52180600
14.63999991,1.43238600
14.67999991,1.38752400
14.71999991,1.29795200
14.75999991,1.25324300
14.79999991,1.11880900
14.83999991,1.02923700
14.87999991,0.89495530
14.91999991,0.80538340
14.95999991,0.67110200
14.99999991,0.53666800
15.03999991,0.40238650
15.07999991,0.26795250
15.11999991,0.13367110
15.15999991,-0.00061037
15.19999991,-0.13489180
15.23999991,-0.26917330
15.27999991,-0.40360730
15.31999991,-0.58275090
15.35999991,-0.71703240
15.39999991,-0.80660420
15.43999991,-0.94088570
15.47999991,-1.03045700
15.51999991,-1.12002900
15.55999991,-1.20960100
15.59999991,-1.29917300
15.63999990,-1.34403500
15.67999990,-1.43360700
15.71999990,-1.43360700
15.75999990,-1.47831700
15.79999990,-1.47831700
15.83999990,-1.47831700
15.87999990,-1.47831700
15.91999990,-1.43360700
15.95999990,-1.38874500
15.99999990,-1.34403500
16.03999990,-1.25446300
16.07999990,-1.20960100
16.11999990,-1.12002900
16.15999990,-1.03045700
16.19999990,-0.89617600
16.23999990,-0.80660420
16.27999990,-0.71703240
16.31999990,-0.53788870
16.35999990,-0.40360730
16.39999990,-0.31403550
16.43999990,-0.17960140
16.47999990,-0.00061037
16.51999990,0.13367110
16.55999990,0.26795250
16.59999990,0.35752430
16.63999990,0.53666800
16.67999990,0.67110200
16.71999990,0.76052120
16.75999990,0.89495530
16.79999990,1.02923700
16.83999990,1.11880900
16.87999990,1.20838000
16.91999990,1.25324300
16.95999990,1.34281400
16.99999990,1.38752400
17.03999990,1.43238600
17.07999990,1.47709600
17.11999990,1.47709600
17.15999990,1.52180600
17.19999990,1.47709600
17.23999990,1.47709600
17.27999989,1.43238600
17.31999989,1.38752400
17.35999989,1.29795200
17.39999989,1.25324300
17.43999989,1.16367100
17.47999989,1.07409900
17.51999989,0.98452710
17.55999989,0.85009310
17.59999989,0.76052120
17.63999989,0.62623980
17.67999989,0.49195840
17.71999989,0.40238650
17.75999989,0.26795250
17.79999989,0.08880886
17.83999989,-0.00061037
17.87999989,-0.17960140
17.91999989,-0.26917330
17.95999989,-0.40360730
17.99999989,-0.53788870
18.03999989,-0.67232280
18.07999989,-0.76174200
18.11999989,-0.89617600
18.15999989,-0.98574790
18.19999989,-1.07532000
18.23999989,-1.16489100
18.27999989,-1.25446300
18.31999989,-1.29917300
18.35999989,-1.34403500
18.39999989,-1.38874500
18.43999989,-1.43360700
18.47999989,-1.43360700
18.51999989,-1.43360700
18.55999989,-1.38874500
18.59999989,-1.34403500
18.63999989,-1.34403500
18.67999989,-1.25446300
18.71999989,-1.20960100
18.75999989,-1.12002900
18.79999989,-1.07532000
18.83999989,-0.94088570
18.87999989,-0.85131380
18.91999989,-0.76174200
18.95999988,-0.62746050
18.99999988,-0.53788870
19.03999988,-0.35874510
19.07999988,-0.26917330
19.11999988,-0.13489180
19.15999988,-0.00061037
19.19999988,0.13367110
19.23999988,0.26795250
19.27999988,0.35752430
19.31999988,0.49195840
19.35999988,0.62623980
19.39999988,0.71581160
19.43999988,0.85009310
19.47999988,0.93966490
19.51999988,1.07409900
19.55999988,1.16367100
19.59999988,1.20838000
19.63999988,1.25324300
19.67999988,1.34281400
19.71999988,1.38752400
19.75999988,1.38752400
19.79999988,1.43238600
19.83999988,1.43238600
19.87999988,1.43238600
19.91999988,1.38752400
19.95999988,1.38752400
19.99999988,1.29795200
20.03999988,1.25324300
20.07999988,1.20838000
20.11999988,1.11880900
20.15999988,1.02923700
20.19999988,0.89495530
20.23999988,0.80538340
20.27999988,0.71581160
20.31999988,0.58153020
20.35999988,0.49195840
20.39999988,0.35752430
20.43999988,0.22324290
20.47999988,0.08880886
20.51999988,-0.00061037
20.55999988,-0.13489180
20.59999987,-0.26917330
20.63999987,-0.40360730
20.67999987,-0.53788870
20.71999987,-0.62746050
20.75999987,-0.76174200
20.79999987,-0.85131380
20.83999987,-0.94088570
20.87999987,-1.03045700
20.91999987,-1.07532000
20.95999987,-1.16489100
20.99999987,-1.25446300
21.03999987,-1.29917300
21.07999987,-1.34403500
21.11999987,-1.34403500
21.15999987,-1.34403500
21.19999987,-1.34403500
21.23999987,-1.34403500
21.27999987,-1.29917300
21.31999987,-1.29917300
21.35999987,-1.20960100
21.39999987,-1.16489100
21.43999987,-1.07532000
21.47999987,-0.98574790
21.51999987,-0.89617600
21.55999987,-0.80660420
21.59999987,-0.71703240
21.63999987,-0.58275090
21.67999987,-0.49317910
21.71999987,-0.35874510
21.75999987,-0.22446360
21.79999987,-0.13489180
21.83999987,-0.00061037
21.87999987,0.13367110
21.91999987,0.26795250
21.95999987,0.35752430
21.99999987,0.53666800
22.03999987,0.62623980
22.07999987,0.71581160
22.11999987,0.80538340
22.15999987,0.89495530
22.19999987,1.02923700
22.23999986,1.07409900
22.27999986,1.16367100
22.31999986,1.20838000
22.35999986,1.25324300
22.39999986,1.29795200
22.43999986,1.34281400
22.47999986,1.34281400
22.51999986,1.34281400
22.55999986,1.34281400
22.59999986,1.34281400
22.63999986,1.29795200
22.67999986,1.25324300
22.71999986,1.20838000
22.75999986,1.11880900
22.79999986,1.07409900
22.83999986,0.98452710
22.87999986,0.85009310
22.91999986,0.80538340
22.95999986,0.67110200
22.99999986,0.53666800
23.03999986,0.44709620
23.07999986,0.35752430
23.11999986,0.17838070
23.15999986,0.08880886
23.19999986,-0.04531999
23.23999986,-0.17960140
23.27999986,-0.26917330
23.31999986,-0.40360730
23.35999986,-0.49317910
23.39999986,-0.62746050
23.43999986,-0.71703240
23.47999986,-0.85131380
23.51999986,-0.89617600
23.55999986,-0.98574790
23.59999986,-1.07532000
23.63999986,-1.12002900
23.67999986,-1.16489100
23.71999986,-1.25446300
23.75999986,-1.25446300
23.79999986,-1.29917300
23.83999986,-1.29917300
23.87999985,-1.29917300
23.91999985,-1.25446300
23.95999985,-1.25446300
23.99999985,-1.16489100
24.03999985,-1.16489100
24.07999985,-1.07532000
24.11999985,-1.07532000
24.15999985,-0.94088570
24.19999985,-0.89617600
24.23999985,-0.76174200
24.27999985,-0.67232280
24.31999985,-0.53788870
24.35999985,-0.44831690
24.39999985,-0.35874510
24.43999985,-0.22446360
24.47999985,-0.13489180
24.51999985,-0.00061037
24.55999985,0.13367110
24.59999985,0.26795250
24.63999985,0.35752430
24.67999985,0.49195840
24.71999985,0.58153020
24.75999985,0.71581160
24.79999985,0.76052120
24.83999985,0.89495530
24.87999985,0.93966490
24.91999985,1.07409900
24.95999985,1.11880900
24.99999985,1.16367100
25.03999985,1.20838000
25.07999985,1.25324300
25.11999985,1.25324300
25.15999985,1.29795200
25.19999985,1.29795200
25.23999985,1.25324300
25.27999985,1.25324300
25.31999985,1.25324300
25.35999985,1.20838000
25.39999985,1.16367100
25.43999985,1.07409900
25.47999985,1.02923700
25.51999984,0.89495530
25.55999984,0.80538340
25.59999984,0.71581160
25.63999984,0.67110200
25.67999984,0.53666800
25.71999984,0.40238650
25.75999984,0.31281470
25.79999984,0.17838070
25.83999984,0.08880886
25.87999984,-0.04531999
25.91999984,-0.17960140
25.95999984,-0.26917330
25.99999984,-0.35874510
26.03999984,-0.49317910
26.07999984,-0.58275090
26.11999984,-0.67232280
26.15999984,-0.76174200
26.19999984,-0.89617600
26.23999984,-0.94088570
26.27999984,-1.03045700
26.31999984,-1.07532000
26.35999984,-1.12002900
26.39999984,-1.16489100
26.43999984,-1.20960100
26.47999984,-1.20960100
26.51999984,-1.25446300
26.55999984,-1.25446300
26.59999984,-1.16489100
26.63999984,-1.16489100
26.67999984,-1.12002900
26.71999984,-1.07532000
26.75999984,-1.03045700
26.79999984,-0.98574790
26.83999984,-0.89617600
26.87999984,-0.80660420
26.91999984,-0.71703240
26.95999984,-0.62746050
26.99999984,-0.53788870
27.03999984,-0.40360730
27.07999984,-0.31403550
27.11999984,-0.17960140
27.15999983,-0.09002960
27.19999983,-0.00061037
27.23999983,0.13367110
27.27999983,0.22324290
27.31999983,0.35752430
27.35999983,0.44709620
27.39999983,0.58153020
27.43999983,0.67110200
27.47999983,0.76052120
27.51999983,0.85009310
27.55999983,0.89495530
27.59999983,1.02923700
27.63999983,1.07409900
27.67999983,1.11880900
27.71999983,1.16367100
27.75999983,1.20838000
27.79999983,1.20838000
27.83999983,1.25324300
27.87999983,1.25324300
27.91999983,1.20838000
27.95999983,1.20838000
27.99999983,1.16367100
28.03999983,1.11880900
28.07999983,1.07409900
28.11999983,1.02923700
28.15999983,0.93966490
28.19999983,0.85009310
28.23999983,0.76052120
28.27999983,0.71581160
28.31999983,0.58153020
28.35999983,0.49195840
28.39999983,0.40238650
28.43999983,0.31281470
28.47999983,0.17838070
28.51999983,0.04409925
28.55999983,-0.04531999
28.59999983,-0.17960140
28.63999983,-0.26917330
28.67999983,-0.35874510
28.71999983,-0.49317910
28.75999983,-0.58275090
28.79999982,-0.67232280
28.83999982,-0.76174200
28.87999982,-0.80660420
28.91999982,-0.89617600
28.95999982,-0.98574790
28.99999982,-1.03045700
29.03999982,-1.07532000
29.07999982,-1.12002900
29.11999982,-1.12002900
29.15999982,-1.16489100
29.19999982,-1.16489100
29.23999982,-1.16489100
29.27999982,-1.12002900
29.31999982,-1.12002900
29.35999982,-1.07532000
29.39999982,-1.03045700
29.43999982,-0.98574790
29.47999982,-0.94088570
29.51999982,-0.85131380
29.55999982,-0.76174200
29.59999982,-0.67232280
29.63999982,-0.58275090
29.67999982,-0.49317910
29.71999982,-0.40360730
29.75999982,-0.26917330
29.79999982,-0.17960140
29.83999982,-0.09002960
29.87999982,-0.00061037
29.91999982,0.13367110
29.95999982,0.26795250
29.99999982,0.35752430
30.03999982,0.44709620
30.07999982,0.53666800
30.11999982,0.67110200
30.15999982,0.71581160
30.19999982,0.80538340
30.23999982,0.89495530
30.27999982,0.98452710
30.31999982,1.02923700
30.35999982,1.07409900
30.39999982,1.11880900
30.43999982,1.16367100
30.47999981,1.16367100
30.51999981,1.20838000
30.55999981,1.20838000
30.59999981,1.16367100
30.63999981,1.16367100
30.67999981,1.11880900
30.71999981,1.07409900
30.75999981,1.02923700
30.79999981,0.98452710
30.83999981,0.89495530
30.87999981,0.80538340
30.91999981,0.71581160
30.95999981,0.67110200
30.99999981,0.53666800
31.03999981,0.44709620
31.07999981,0.35752430
31.11999981,0.26795250
31.15999981,0.17838070
31.19999981,0.04409925
31.23999981,-0.04531999
31.27999981,-0.13489180
31.31999981,-0.22446360
31.35999981,-0.35874510
31.39999981,-0.44831690
31.43999981,-0.53788870
31.47999981,-0.62746050
31.51999981,-0.71703240
31.55999981,-0.80660420
31.59999981,-0.89617600
31.63999981,-0.94088570
31.67999981,-0.98574790
31.71999981,-1.03045700
31.75999981,-1.07532000
31.79999981,-1.07532000
31.83999981,-1.12002900
31.87999981,-1.07532000
31.91999981,-1.07532000
31.95999981,-1.07532000
31.99999981,-1.07532000
32.03999981,-1.03045700
32.07999981,-0.98574790
32.11999980,-0.94088570
32.15999980,-0.89617600
32.19999980,-0.80660420
32.23999980,-0.71703240
32.27999980,-0.62746050
32.31999980,-0.53788870
32.35999980,-0.44831690
32.39999980,-0.35874510
32.43999980,-0.26917330
32.47999980,-0.17960140
32.51999980,-0.04531999
32.55999980,0.04409925
32.59999980,0.13367110
32.63999980,0.22324290
32.67999980,0.35752430
32.71999980,0.44709620
32.75999980,0.53666800
32.79999980,0.67110200
32.83999980,0.71581160
32.87999980,0.76052120
32.91999980,0.85009310
32.95999980,0.89495530
