Time,Channel A
(us),(V)

0.00000000,0.44709620
0.04000000,0.58153020
0.08000000,0.71581160
0.12000000,0.85009310
0.16000000,0.98452710
0.20000000,1.07409900
0.24000000,1.20838000
0.28000000,1.25324300
0.32000000,1.38752400
0.36000000,1.43238600
0.40000000,1.47709600
0.44000000,1.52180600
0.48000000,1.56666800
0.52000000,1.56666800
0.56000000,1.56666800
0.60000000,1.56666800
0.64000000,1.56666800
0.68000000,1.52180600
0.72000000,1.47709600
0.76000000,1.38752400
0.80000000,1.34281400
0.83999999,1.25324300
0.87999999,1.16367100
0.91999999,1.07409900
0.95999999,0.93966490
0.99999999,0.80538340
1.03999999,0.67110200
1.07999999,0.53666800
1.11999999,0.40238650
1.15999999,0.26795250
1.19999999,0.13367110
1.23999999,-0.04531999
1.27999999,-0.17960140
1.31999999,-0.31403550
1.35999999,-0.44831690
1.39999999,-0.58275090
1.43999999,-0.71703240
1.47999999,-0.85131380
1.51999999,-0.98574790
1.55999999,-1.07532000
1.59999999,-1.16489100
1.63999999,-1.25446300
1.67999999,-1.34403500
1.71999999,-1.38874500
1.75999999,-1.43360700
1.79999999,-1.47831700
1.83999999,-1.47831700
1.87999999,-1.47831700
1.91999999,-1.47831700
1.95999999,-1.47831700
1.99999999,-1.43360700
2.03999999,-1.43360700
2.07999999,-1.34403500
2.11999999,-1.29917300
2.15999999,-1.20960100
2.19999999,-1.12002900
2.23999999,-1.03045700
2.27999999,-0.89617600
2.31999999,-0.80660420
2.35999999,-0.71703240
2.39999999,-0.53788870
2.43999999,-0.40360730
2.47999998,-0.26917330
2.51999998,-0.13489180
2.55999998,-0.00061037
2.59999998,0.13367110
2.63999998,0.26795250
2.67999998,0.40238650
2.71999998,0.53666800
2.75999998,0.67110200
2.79999998,0.80538340
2.83999998,0.89495530
2.87999998,1.02923700
2.91999998,1.11880900
2.95999998,1.25324300
2.99999998,1.29795200
3.03999998,1.38752400
3.07999998,1.43238600
3.11999998,1.43238600
3.15999998,1.47709600
3.19999998,1.52180600
3.23999998,1.52180600
3.27999998,1.52180600
3.31999998,1.47709600
3.35999998,1.43238600
3.39999998,1.38752400
3.43999998,1.34281400
3.47999998,1.25324300
3.51999998,1.16367100
3.55999998,1.07409900
3.59999998,0.93966490
3.63999998,0.85009310
3.67999998,0.76052120
3.71999998,0.62623980
3.75999998,0.49195840
3.79999998,0.35752430
3.83999998,0.26795250
3.87999998,0.13367110
3.91999998,-0.04531999
3.95999998,-0.17960140
3.99999998,-0.31403550
4.03999998,-0.44831690
4.07999998,-0.53788870
4.11999997,-0.67232280
4.15999997,-0.80660420
4.19999997,-0.89617600
4.23999997,-1.03045700
4.27999997,-1.12002900
4.31999997,-1.20960100
4.35999997,-1.25446300
4.39999997,-1.34403500
4.43999997,-1.38874500
4.47999997,-1.43360700
4.51999997,-1.43360700
4.55999997,-1.43360700
4.59999997,-1.43360700
4.63999997,-1.43360700
4.67999997,-1.38874500
4.71999997,-1.34403500
4.75999997,-1.29917300
4.79999997,-1.25446300
4.83999997,-1.12002900
4.87999997,-1.07532000
4.91999997,-0.94088570
4.95999997,-0.85131380
4.99999997,-0.76174200
5.03999997,-0.62746050
5.07999997,-0.53788870
5.11999997,-0.35874510
5.15999997,-0.26917330
5.19999997,-0.13489180
5.23999997,-0.00061037
5.27999997,0.13367110
5.31999997,0.26795250
5.35999997,0.40238650
5.39999997,0.53666800
5.43999997,0.67110200
5.47999997,0.76052120
5.51999997,0.89495530
5.55999997,0.98452710
5.59999997,1.07409900
5.63999997,1.16367100
5.67999997,1.25324300
5.71999997,1.29795200
5.75999996,1.38752400
5.79999996,1.38752400
5.83999996,1.43238600
5.87999996,1.43238600
5.91999996,1.43238600
5.95999996,1.43238600
5.99999996,1.43238600
6.03999996,1.38752400
6.07999996,1.34281400
6.11999996,1.25324300
6.15999996,1.20838000
6.19999996,1.11880900
6.23999996,1.02923700
6.27999996,0.93966490
6.31999996,0.80538340
6.35999996,0.71581160
6.39999996,0.58153020
6.43999996,0.44709620
6.47999996,0.35752430
6.51999996,0.22324290
6.55999996,0.08880886
6.59999996,-0.04531999
6.63999996,-0.17960140
6.67999996,-0.26917330
6.71999996,-0.40360730
6.75999996,-0.53788870
6.79999996,-0.67232280
6.83999996,-0.76174200
6.87999996,-0.89617600
6.91999996,-0.98574790
6.95999996,-1.07532000
6.99999996,-1.12002900
7.03999996,-1.20960100
7.07999996,-1.25446300
7.11999996,-1.29917300
7.15999996,-1.34403500
7.19999996,-1.38874500
7.23999996,-1.38874500
7.27999996,-1.34403500
7.31999996,-1.34403500
7.35999996,-1.29917300
7.39999996,-1.29917300
7.43999995,-1.25446300
7.47999995,-1.16489100
7.51999995,-1.07532000
7.55999995,-1.03045700
7.59999995,-0.89617600
7.63999995,-0.80660420
7.67999995,-0.71703240
7.71999995,-0.62746050
7.75999995,-0.49317910
7.79999995,-0.35874510
7.83999995,-0.22446360
7.87999995,-0.09002960
7.91999995,-0.00061037
7.95999995,0.13367110
7.99999995,0.26795250
8.03999995,0.35752430
8.07999995,0.53666800
8.11999995,0.67110200
8.15999995,0.71581160
8.19999995,0.85009310
8.23999995,0.93966490
8.27999995,1.02923700
8.31999995,1.11880900
8.35999995,1.20838000
8.39999995,1.25324300
8.43999995,1.29795200
8.47999995,1.34281400
8.51999995,1.38752400
8.55999995,1.38752400
8.59999995,1.38752400
8.63999995,1.38752400
8.67999995,1.34281400
8.71999995,1.29795200
8.75999995,1.25324300
8.79999995,1.20838000
8.83999995,1.11880900
8.87999995,1.07409900
8.91999995,0.93966490
8.95999995,0.89495530
8.99999995,0.76052120
9.03999995,0.67110200
9.07999994,0.53666800
9.11999994,0.44709620
9.15999994,0.31281470
9.19999994,0.17838070
9.23999994,0.08880886
9.27999994,-0.04531999
9.31999994,-0.17960140
9.35999994,-0.31403550
9.39999994,-0.40360730
9.43999994,-0.53788870
9.47999994,-0.62746050
9.51999994,-0.71703240
9.55999994,-0.85131380
9.59999994,-0.94088570
9.63999994,-1.03045700
9.67999994,-1.07532000
9.71999994,-1.12002900
9.75999994,-1.20960100
9.79999994,-1.25446300
9.83999994,-1.25446300
9.87999994,-1.29917300
9.91999994,-1.29917300
9.95999994,-1.29917300
9.99999994,-1.29917300
10.03999994,-1.25446300
10.07999994,-1.25446300
10.11999994,-1.16489100
10.15999994,-1.12002900
10.19999994,-1.03045700
10.23999994,-0.94088570
10.27999994,-0.85131380
10.31999994,-0.76174200
10.35999994,-0.67232280
10.39999994,-0.53788870
10.43999994,-0.44831690
10.47999994,-0.35874510
10.51999994,-0.22446360
10.55999994,-0.09002960
10.59999994,-0.00061037
10.63999994,0.13367110
10.67999994,0.26795250
10.71999993,0.35752430
10.75999993,0.49195840
10.79999993,0.62623980
10.83999993,0.71581160
10.87999993,0.80538340
10.91999993,0.89495530
10.95999993,0.98452710
10.99999993,1.07409900
11.03999993,1.16367100
11.07999993,1.16367100
11.11999993,1.25324300
11.15999993,1.25324300
11.19999993,1.29795200
11.23999993,1.34281400
11.27999993,1.29795200
11.31999993,1.29795200
11.35999993,1.25324300
11.39999993,1.25324300
11.43999993,1.20838000
11.47999993,1.11880900
11.51999993,1.07409900
11.55999993,0.98452710
11.59999993,0.89495530
11.63999993,0.80538340
11.67999993,0.71581160
11.71999993,0.62623980
11.75999993,0.53666800
11.79999993,0.40238650
11.83999993,0.31281470
11.87999993,0.17838070
11.91999993,0.04409925
11.95999993,-0.09002960
11.99999993,-0.17960140
12.03999993,-0.26917330
12.07999993,-0.40360730
12.11999993,-0.53788870
12.15999993,-0.62746050
12.19999993,-0.71703240
12.23999993,-0.80660420
12.27999993,-0.89617600
12.31999993,-0.98574790
12.35999992,-1.03045700
12.39999992,-1.07532000
12.43999992,-1.12002900
12.47999992,-1.20960100
12.51999992,-1.20960100
12.55999992,-1.25446300
12.59999992,-1.25446300
12.63999992,-1.25446300
12.67999992,-1.25446300
12.71999992,-1.16489100
12.75999992,-1.16489100
12.79999992,-1.07532000
12.83999992,-1.03045700
12.87999992,-0.98574790
12.91999992,-0.89617600
12.95999992,-0.80660420
12.99999992,-0.71703240
13.03999992,-0.62746050
13.07999992,-0.53788870
13.11999992,-0.40360730
13.15999992,-0.26917330
13.19999992,-0.17960140
13.23999992,-0.04531999
13.27999992,0.04409925
13.31999992,0.13367110
13.35999992,0.26795250
13.39999992,0.35752430
13.43999992,0.49195840
13.47999992,0.58153020
13.51999992,0.67110200
13.55999992,0.76052120
13.59999992,0.89495530
13.63999992,0.89495530
13.67999992,1.02923700
13.71999992,1.07409900
13.75999992,1.16367100
13.79999992,1.16367100
13.83999992,1.20838000
13.87999992,1.25324300
13.91999992,1.25324300
13.95999992,1.25324300
13.99999991,1.25324300
14.03999991,1.20838000
14.07999991,1.20838000
14.11999991,1.11880900
14.15999991,1.07409900
14.19999991,1.02923700
14.23999991,0.93966490
14.27999991,0.89495530
14.31999991,0.76052120
14.35999991,0.71581160
14.39999991,0.58153020
14.43999991,0.49195840
14.47999991,0.35752430
14.51999991,0.26795250
14.55999991,0.17838070
14.59999991,0.04409925
14.63999991,-0.04531999
14.67999991,-0.17960140
14.71999991,-0.26917330
14.75999991,-0.35874510
14.79999991,-0.49317910
14.83999991,-0.58275090
14.87999991,-0.67232280
14.91999991,-0.76174200
14.95999991,-0.89617600
14.99999991,-0.94088570
15.03999991,-0.98574790
15.07999991,-1.07532000
15.11999991,-1.07532000
15.15999991,-1.12002900
15.19999991,-1.16489100
15.23999991,-1.16489100
15.27999991,-1.16489100
15.31999991,-1.16489100
15.35999991,-1.16489100
15.39999991,-1.12002900
15.43999991,-1.07532000
15.47999991,-1.07532000
15.51999991,-0.98574790
15.55999991,-0.89617600
15.59999991,-0.85131380
15.63999990,-0.76174200
15.67999990,-0.67232280
15.71999990,-0.58275090
15.75999990,-0.49317910
15.79999990,-0.35874510
15.83999990,-0.26917330
15.87999990,-0.17960140
15.91999990,-0.04531999
15.95999990,0.04409925
15.99999990,0.17838070
16.03999990,0.26795250
16.07999990,0.35752430
16.11999990,0.49195840
16.15999990,0.58153020
16.19999990,0.67110200
16.23999990,0.76052120
16.27999990,0.85009310
16.31999990,0.89495530
16.35999990,0.98452710
16.39999990,1.02923700
16.43999990,1.07409900
16.47999990,1.11880900
16.51999990,1.16367100
16.55999990,1.20838000
16.59999990,1.20838000
16.63999990,1.20838000
16.67999990,1.20838000
16.71999990,1.16367100
16.75999990,1.11880900
16.79999990,1.07409900
16.83999990,1.02923700
16.87999990,0.93966490
16.91999990,0.89495530
16.95999990,0.85009310
16.99999990,0.76052120
17.03999990,0.67110200
17.07999990,0.53666800
17.11999990,0.44709620
17.15999990,0.35752430
17.19999990,0.26795250
17.23999990,0.13367110
17.27999989,0.04409925
17.31999989,-0.04531999
17.35999989,-0.17960140
17.39999989,-0.26917330
17.43999989,-0.35874510
17.47999989,-0.49317910
17.51999989,-0.58275090
17.55999989,-0.67232280
17.59999989,-0.71703240
17.63999989,-0.80660420
17.67999989,-0.89617600
17.71999989,-0.94088570
17.75999989,-0.98574790
17.79999989,-1.03045700
17.83999989,-1.07532000
17.87999989,-1.07532000
17.91999989,-1.12002900
17.95999989,-1.12002900
17.99999989,-1.12002900
18.03999989,-1.12002900
18.07999989,-1.07532000
18.11999989,-1.07532000
18.15999989,-0.98574790
18.19999989,-0.94088570
18.23999989,-0.89617600
18.27999989,-0.80660420
18.31999989,-0.71703240
18.35999989,-0.62746050
18.39999989,-0.53788870
18.43999989,-0.44831690
18.47999989,-0.35874510
18.51999989,-0.22446360
18.55999989,-0.17960140
18.59999989,-0.04531999
18.63999989,0.04409925
18.67999989,0.17838070
18.71999989,0.26795250
18.75999989,0.35752430
18.79999989,0.44709620
18.83999989,0.53666800
18.87999989,0.67110200
18.91999989,0.71581160
18.95999988,0.80538340
18.99999988,0.85009310
19.03999988,0.89495530
19.07999988,0.98452710
19.11999988,1.02923700
19.15999988,1.07409900
19.19999988,1.11880900
19.23999988,1.11880900
19.27999988,1.16367100
19.31999988,1.11880900
19.35999988,1.11880900
19.39999988,1.11880900
19.43999988,1.07409900
19.47999988,1.02923700
19.51999988,0.98452710
19.55999988,0.89495530
19.59999988,0.85009310
19.63999988,0.76052120
19.67999988,0.71581160
19.71999988,0.62623980
19.75999988,0.53666800
19.79999988,0.40238650
19.83999988,0.35752430
19.87999988,0.22324290
19.91999988,0.13367110
19.95999988,-0.00061037
19.99999988,-0.09002960
20.03999988,-0.17960140
20.07999988,-0.26917330
20.11999988,-0.35874510
20.15999988,-0.44831690
20.19999988,-0.53788870
20.23999988,-0.62746050
20.27999988,-0.71703240
20.31999988,-0.76174200
20.35999988,-0.85131380
20.39999988,-0.89617600
20.43999988,-0.94088570
20.47999988,-0.98574790
20.51999988,-1.03045700
20.55999988,-1.07532000
20.59999987,-1.07532000
20.63999987,-1.07532000
20.67999987,-1.07532000
20.71999987,-1.03045700
20.75999987,-0.98574790
20.79999987,-0.98574790
20.83999987,-0.94088570
20.87999987,-0.89617600
20.91999987,-0.85131380
20.95999987,-0.76174200
20.99999987,-0.67232280
21.03999987,-0.58275090
21.07999987,-0.53788870
21.11999987,-0.40360730
21.15999987,-0.35874510
21.19999987,-0.22446360
21.23999987,-0.13489180
21.27999987,-0.04531999
21.31999987,0.04409925
21.35999987,0.13367110
21.39999987,0.26795250
21.43999987,0.35752430
21.47999987,0.44709620
21.51999987,0.53666800
21.55999987,0.62623980
21.59999987,0.71581160
21.63999987,0.76052120
21.67999987,0.85009310
21.71999987,0.89495530
21.75999987,0.98452710
21.79999987,0.98452710
21.83999987,1.02923700
21.87999987,1.07409900
21.91999987,1.07409900
21.95999987,1.07409900
21.99999987,1.07409900
22.03999987,1.07409900
22.07999987,1.02923700
22.11999987,1.02923700
22.15999987,0.98452710
22.19999987,0.89495530
22.23999986,0.85009310
22.27999986,0.80538340
22.31999986,0.71581160
22.35999986,0.67110200
22.39999986,0.58153020
22.43999986,0.49195840
22.47999986,0.40238650
22.51999986,0.31281470
22.55999986,0.17838070
22.59999986,0.08880886
22.63999986,-0.00061037
22.67999986,-0.09002960
22.71999986,-0.17960140
22.75999986,-0.26917330
22.79999986,-0.35874510
22.83999986,-0.44831690
22.87999986,-0.53788870
22.91999986,-0.62746050
22.95999986,-0.71703240
22.99999986,-0.76174200
23.03999986,-0.80660420
23.07999986,-0.89617600
23.11999986,-0.94088570
23.15999986,-0.94088570
23.19999986,-0.98574790
23.23999986,-0.98574790
23.27999986,-1.03045700
23.31999986,-1.03045700
23.35999986,-1.03045700
23.39999986,-0.98574790
23.43999986,-0.94088570
23.47999986,-0.94088570
23.51999986,-0.89617600
23.55999986,-0.85131380
23.59999986,-0.76174200
23.63999986,-0.71703240
23.67999986,-0.62746050
23.71999986,-0.58275090
23.75999986,-0.49317910
23.79999986,-0.35874510
23.83999986,-0.31403550
23.87999985,-0.17960140
23.91999985,-0.13489180
23.95999985,-0.00061037
23.99999985,0.04409925
24.03999985,0.13367110
24.07999985,0.26795250
24.11999985,0.35752430
24.15999985,0.44709620
24.19999985,0.53666800
24.23999985,0.71581160
24.27999985,0.89495530
24.31999985,1.11880900
24.35999985,1.43238600
24.39999985,1.74581100
24.43999985,2.05923700
24.47999985,2.37266200
24.51999985,2.64137700
24.55999985,2.86538300
24.59999985,2.95480200
24.63999985,2.95480200
24.67999985,2.86538300
24.71999985,2.68623900
24.75999985,2.37266200
24.79999985,1.96966500
24.83999985,1.56666800
24.87999985,1.07409900
24.91999985,0.53666800
24.95999985,0.04409925
24.99999985,-0.40360730
25.03999985,-0.85131380
25.07999985,-1.16489100
25.11999985,-1.43360700
25.15999985,-1.61259800
25.19999985,-1.74703200
25.23999985,-1.74703200
25.27999985,-1.70217000
25.31999985,-1.61259800
25.35999985,-1.47831700
25.39999985,-1.29917300
25.43999985,-1.16489100
25.47999985,-1.03045700
25.51999984,-0.89617600
25.55999984,-0.85131380
25.59999984,-0.85131380
25.63999984,-0.89617600
25.67999984,-1.03045700
25.71999984,-1.16489100
25.75999984,-1.43360700
25.79999984,-1.61259800
25.83999984,-1.83660400
25.87999984,-2.06045700
25.91999984,-2.23960100
25.95999984,-2.37388200
25.99999984,-2.41874500
26.03999984,-2.41874500
26.07999984,-2.32917300
26.11999984,-2.10531900
26.15999984,-1.83660400
26.19999984,-1.52302600
26.23999984,-1.16489100
26.27999984,-0.76174200
26.31999984,-0.31403550
26.35999984,0.08880886
26.39999984,0.53666800
26.43999984,0.89495530
26.47999984,1.25324300
26.51999984,1.47709600
26.55999984,1.70094900
26.59999984,1.79052100
26.63999984,1.88009300
26.67999984,1.92495500
26.71999984,1.92495500
26.75999984,1.92495500
26.79999984,1.92495500
26.83999984,1.92495500
26.87999984,1.96966500
26.91999984,1.96966500
26.95999984,2.01452700
26.99999984,2.05923700
27.03999984,2.10409900
27.07999984,2.14880800
27.11999984,2.14880800
27.15999983,2.14880800
27.19999983,2.14880800
27.23999983,2.14880800
27.27999983,2.01452700
27.31999983,1.92495500
27.35999983,1.74581100
27.39999983,1.56666800
27.43999983,1.34281400
27.47999983,1.11880900
27.51999983,0.80538340
27.55999983,0.49195840
27.59999983,0.17838070
27.63999983,-0.09002960
27.67999983,-0.40360730
27.71999983,-0.71703240
27.75999983,-0.98574790
27.79999983,-1.20960100
27.83999983,-1.43360700
27.87999983,-1.56788800
27.91999983,-1.70217000
27.95999983,-1.79174200
27.99999983,-1.88131400
28.03999983,-1.97088500
28.07999983,-1.97088500
28.11999983,-1.97088500
28.15999983,-1.97088500
28.19999983,-1.97088500
28.23999983,-1.97088500
28.27999983,-2.01574800
28.31999983,-1.97088500
28.35999983,-1.97088500
28.39999983,-1.97088500
28.43999983,-1.97088500
28.47999983,-1.97088500
28.51999983,-1.97088500
28.55999983,-1.88131400
28.59999983,-1.83660400
28.63999983,-1.79174200
28.67999983,-1.65746000
28.71999983,-1.52302600
28.75999983,-1.34403500
28.79999982,-1.16489100
28.83999982,-0.94088570
28.87999982,-0.67232280
28.91999982,-0.40360730
28.95999982,-0.13489180
28.99999982,0.13367110
29.03999982,0.44709620
29.07999982,0.71581160
29.11999982,0.98452710
29.15999982,1.20838000
29.19999982,1.43238600
29.23999982,1.61137700
29.27999982,1.74581100
29.31999982,1.88009300
29.35999982,1.96966500
29.39999982,2.05923700
29.43999982,2.10409900
29.47999982,2.10409900
29.51999982,2.14880800
29.55999982,2.14880800
29.59999982,2.10409900
29.63999982,2.05923700
29.67999982,2.05923700
29.71999982,2.01452700
29.75999982,1.96966500
29.79999982,1.92495500
29.83999982,1.88009300
29.87999982,1.79052100
29.91999982,1.74581100
29.95999982,1.65624000
29.99999982,1.56666800
30.03999982,1.43238600
30.07999982,1.34281400
30.11999982,1.16367100
30.15999982,1.02923700
30.19999982,0.80538340
30.23999982,0.58153020
30.27999982,0.35752430
30.31999982,0.08880886
30.35999982,-0.13489180
30.39999982,-0.40360730
30.43999982,-0.67232280
30.47999981,-0.89617600
30.51999981,-1.12002900
30.55999981,-1.34403500
30.59999981,-1.52302600
30.63999981,-1.70217000
30.67999981,-1.83660400
30.71999981,-1.97088500
30.75999981,-2.01574800
30.79999981,-2.10531900
30.83999981,-2.15002900
30.87999981,-2.15002900
30.91999981,-2.15002900
30.95999981,-2.10531900
30.99999981,-2.06045700
31.03999981,-2.01574800
31.07999981,-1.92617600
31.11999981,-1.88131400
31.15999981,-1.79174200
31.19999981,-1.74703200
31.23999981,-1.61259800
31.27999981,-1.56788800
31.31999981,-1.43360700
31.35999981,-1.34403500
31.39999981,-1.20960100
31.43999981,-1.07532000
31.47999981,-0.94088570
31.51999981,-0.76174200
31.55999981,-0.58275090
31.59999981,-0.40360730
31.63999981,-0.17960140
31.67999981,0.04409925
31.71999981,0.26795250
31.75999981,0.49195840
31.79999981,0.71581160
31.83999981,0.93966490
31.87999981,1.16367100
31.91999981,1.38752400
31.95999981,1.56666800
31.99999981,1.74581100
32.03999981,1.88009300
32.07999981,1.96966500
32.11999980,2.05923700
32.15999980,2.14880800
32.19999980,2.19351800
32.23999980,2.19351800
32.27999980,2.14880800
32.31999980,2.14880800
32.35999980,2.10409900
32.39999980,2.05923700
32.43999980,1.96966500
32.47999980,1.88009300
32.51999980,1.79052100
32.55999980,1.70094900
32.59999980,1.56666800
32.63999980,1.47709600
32.67999980,1.34281400
32.71999980,1.20838000
32.75999980,1.07409900
32.79999980,0.93966490
32.83999980,0.80538340
32.87999980,0.62623980
32.91999980,0.49195840
32.95999980,0.26795250
