Time,Channel A
(us),(V)

0.00000000,-0.04531999
0.04000000,0.22324290
0.08000000,0.49195840
0.12000000,0.76052120
0.16000000,1.02923700
0.20000000,1.25324300
0.24000000,1.47709600
0.28000000,1.65624000
0.32000000,1.79052100
0.36000000,1.92495500
0.40000000,2.01452700
0.44000000,2.10409900
0.48000000,2.14880800
0.52000000,2.14880800
0.56000000,2.19351800
0.60000000,2.14880800
0.64000000,2.14880800
0.68000000,2.10409900
0.72000000,2.05923700
0.76000000,2.01452700
0.80000000,1.96966500
0.83999999,1.92495500
0.87999999,1.88009300
0.91999999,1.79052100
0.95999999,1.70094900
0.99999999,1.61137700
1.03999999,1.52180600
1.07999999,1.38752400
1.11999999,1.25324300
1.15999999,1.07409900
1.19999999,0.89495530
1.23999999,0.71581160
1.27999999,0.49195840
1.31999999,0.26795250
1.35999999,-0.00061037
1.39999999,-0.22446360
1.43999999,-0.49317910
1.47999999,-0.71703240
1.51999999,-0.94088570
1.55999999,-1.16489100
1.59999999,-1.43360700
1.63999999,-1.61259800
1.67999999,-1.74703200
1.71999999,-1.88131400
1.75999999,-2.01574800
1.79999999,-2.10531900
1.83999999,-2.15002900
1.87999999,-2.15002900
1.91999999,-2.19473900
1.95999999,-2.15002900
1.99999999,-2.15002900
2.03999999,-2.06045700
2.07999999,-2.01574800
2.11999999,-1.97088500
2.15999999,-1.88131400
2.19999999,-1.79174200
2.23999999,-1.70217000
2.27999999,-1.61259800
2.31999999,-1.52302600
2.35999999,-1.43360700
2.39999999,-1.29917300
2.43999999,-1.16489100
2.47999998,-1.03045700
2.51999998,-0.85131380
2.55999998,-0.71703240
2.59999998,-0.49317910
2.63999998,-0.31403550
2.67999998,-0.09002960
2.71999998,0.13367110
2.75999998,0.35752430
2.79999998,0.58153020
2.83999998,0.76052120
2.87999998,1.02923700
2.91999998,1.25324300
2.95999998,1.43238600
2.99999998,1.61137700
3.03999998,1.79052100
3.07999998,1.92495500
3.11999998,2.01452700
3.15999998,2.10409900
3.19999998,2.14880800
3.23999998,2.19351800
3.27999998,2.23838000
3.31999998,2.19351800
3.35999998,2.14880800
3.39999998,2.10409900
3.43999998,2.05923700
3.47999998,1.96966500
3.51999998,1.88009300
3.55999998,1.79052100
3.59999998,1.65624000
3.63999998,1.52180600
3.67999998,1.43238600
3.71999998,1.29795200
3.75999998,1.16367100
3.79999998,1.02923700
3.83999998,0.89495530
3.87999998,0.71581160
3.91999998,0.53666800
3.95999998,0.35752430
3.99999998,0.17838070
4.03999998,-0.00061037
4.07999998,-0.17960140
4.11999997,-0.35874510
4.15999997,-0.58275090
4.19999997,-0.80660420
4.23999997,-1.03045700
4.27999997,-1.20960100
4.31999997,-1.38874500
4.35999997,-1.56788800
4.39999997,-1.70217000
4.43999997,-1.83660400
4.47999997,-1.97088500
4.51999997,-2.01574800
4.55999997,-2.10531900
4.59999997,-2.15002900
4.63999997,-2.15002900
4.67999997,-2.15002900
4.71999997,-2.10531900
4.75999997,-2.06045700
4.79999997,-1.97088500
4.83999997,-1.88131400
4.87999997,-1.79174200
4.91999997,-1.65746000
4.95999997,-1.56788800
4.99999997,-1.43360700
5.03999997,-1.29917300
5.07999997,-1.12002900
5.11999997,-0.98574790
5.15999997,-0.85131380
5.19999997,-0.71703240
5.23999997,-0.53788870
5.27999997,-0.35874510
5.31999997,-0.17960140
5.35999997,-0.00061037
5.39999997,0.17838070
5.43999997,0.35752430
5.47999997,0.53666800
5.51999997,0.71581160
5.55999997,0.89495530
5.59999997,1.07409900
5.63999997,1.25324300
5.67999997,1.43238600
5.71999997,1.56666800
5.75999996,1.74581100
5.79999996,1.83538300
5.83999996,1.96966500
5.87999996,2.01452700
5.91999996,2.10409900
5.95999996,2.14880800
5.99999996,2.14880800
6.03999996,2.10409900
6.07999996,2.10409900
6.11999996,2.05923700
6.15999996,1.96966500
6.19999996,1.88009300
6.23999996,1.79052100
6.27999996,1.61137700
6.31999996,1.52180600
6.35999996,1.38752400
6.39999996,1.25324300
6.43999996,1.07409900
6.47999996,0.89495530
6.51999996,0.76052120
6.55999996,0.62623980
6.59999996,0.44709620
6.63999996,0.26795250
6.67999996,0.08880886
6.71999996,-0.09002960
6.75999996,-0.26917330
6.79999996,-0.40360730
6.83999996,-0.58275090
6.87999996,-0.76174200
6.91999996,-0.94088570
6.95999996,-1.07532000
6.99999996,-1.25446300
7.03999996,-1.43360700
7.07999996,-1.52302600
7.11999996,-1.65746000
7.15999996,-1.79174200
7.19999996,-1.83660400
7.23999996,-1.92617600
7.27999996,-1.97088500
7.31999996,-2.01574800
7.35999996,-2.01574800
7.39999996,-2.01574800
7.43999995,-2.01574800
7.47999995,-1.92617600
7.51999995,-1.83660400
7.55999995,-1.79174200
7.59999995,-1.65746000
7.63999995,-1.52302600
7.67999995,-1.43360700
7.71999995,-1.25446300
7.75999995,-1.12002900
7.79999995,-0.94088570
7.83999995,-0.80660420
7.87999995,-0.62746050
7.91999995,-0.44831690
7.95999995,-0.26917330
7.99999995,-0.13489180
8.03999995,0.04409925
8.07999995,0.22324290
8.11999995,0.40238650
8.15999995,0.53666800
8.19999995,0.71581160
8.23999995,0.89495530
8.27999995,1.02923700
8.31999995,1.16367100
8.35999995,1.34281400
8.39999995,1.43238600
8.43999995,1.56666800
8.47999995,1.70094900
8.51999995,1.79052100
8.55999995,1.88009300
8.59999995,1.92495500
8.63999995,1.96966500
8.67999995,2.01452700
8.71999995,2.01452700
8.75999995,1.96966500
8.79999995,1.96966500
8.83999995,1.88009300
8.87999995,1.83538300
8.91999995,1.70094900
8.95999995,1.61137700
8.99999995,1.47709600
9.03999995,1.38752400
9.07999994,1.25324300
9.11999994,1.07409900
9.15999994,0.89495530
9.19999994,0.71581160
9.23999994,0.53666800
9.27999994,0.35752430
9.31999994,0.22324290
9.35999994,0.04409925
9.39999994,-0.09002960
9.43999994,-0.26917330
9.47999994,-0.44831690
9.51999994,-0.58275090
9.55999994,-0.76174200
9.59999994,-0.94088570
9.63999994,-1.07532000
9.67999994,-1.16489100
9.71999994,-1.34403500
9.75999994,-1.43360700
9.79999994,-1.56788800
9.83999994,-1.65746000
9.87999994,-1.74703200
9.91999994,-1.79174200
9.95999994,-1.83660400
9.99999994,-1.88131400
10.03999994,-1.88131400
10.07999994,-1.88131400
10.11999994,-1.88131400
10.15999994,-1.79174200
10.19999994,-1.79174200
10.23999994,-1.70217000
10.27999994,-1.61259800
10.31999994,-1.47831700
10.35999994,-1.38874500
10.39999994,-1.25446300
10.43999994,-1.07532000
10.47999994,-0.94088570
10.51999994,-0.76174200
10.55999994,-0.62746050
10.59999994,-0.44831690
10.63999994,-0.26917330
10.67999994,-0.09002960
10.71999993,0.08880886
10.75999993,0.26795250
10.79999993,0.40238650
10.83999993,0.58153020
10.87999993,0.71581160
10.91999993,0.89495530
10.95999993,1.02923700
10.99999993,1.16367100
11.03999993,1.25324300
11.07999993,1.43238600
11.11999993,1.47709600
11.15999993,1.61137700
11.19999993,1.70094900
11.23999993,1.74581100
11.27999993,1.79052100
11.31999993,1.83538300
11.35999993,1.88009300
11.39999993,1.88009300
11.43999993,1.83538300
11.47999993,1.79052100
11.51999993,1.79052100
11.55999993,1.70094900
11.59999993,1.61137700
11.63999993,1.56666800
11.67999993,1.43238600
11.71999993,1.29795200
11.75999993,1.20838000
11.79999993,1.02923700
11.83999993,0.89495530
11.87999993,0.71581160
11.91999993,0.53666800
11.95999993,0.35752430
11.99999993,0.17838070
12.03999993,0.04409925
12.07999993,-0.13489180
12.11999993,-0.31403550
12.15999993,-0.44831690
12.19999993,-0.62746050
12.23999993,-0.76174200
12.27999993,-0.89617600
12.31999993,-1.07532000
12.35999992,-1.16489100
12.39999992,-1.29917300
12.43999992,-1.38874500
12.47999992,-1.47831700
12.51999992,-1.56788800
12.55999992,-1.65746000
12.59999992,-1.70217000
12.63999992,-1.74703200
12.67999992,-1.79174200
12.71999992,-1.79174200
12.75999992,-1.79174200
12.79999992,-1.74703200
12.83999992,-1.70217000
12.87999992,-1.65746000
12.91999992,-1.61259800
12.95999992,-1.47831700
12.99999992,-1.43360700
13.03999992,-1.29917300
13.07999992,-1.16489100
13.11999992,-1.03045700
13.15999992,-0.89617600
13.19999992,-0.76174200
13.23999992,-0.58275090
13.27999992,-0.40360730
13.31999992,-0.26917330
13.35999992,-0.09002960
13.39999992,0.04409925
13.43999992,0.26795250
13.47999992,0.40238650
13.51999992,0.58153020
13.55999992,0.71581160
13.59999992,0.85009310
13.63999992,0.98452710
13.67999992,1.11880900
13.71999992,1.25324300
13.75999992,1.34281400
13.79999992,1.43238600
13.83999992,1.52180600
13.87999992,1.61137700
13.91999992,1.65624000
13.95999992,1.74581100
13.99999991,1.74581100
14.03999991,1.79052100
14.07999991,1.74581100
14.11999991,1.74581100
14.15999991,1.74581100
14.19999991,1.65624000
14.23999991,1.61137700
14.27999991,1.52180600
14.31999991,1.47709600
14.35999991,1.34281400
14.39999991,1.25324300
14.43999991,1.11880900
14.47999991,0.98452710
14.51999991,0.85009310
14.55999991,0.71581160
14.59999991,0.53666800
14.63999991,0.35752430
14.67999991,0.17838070
14.71999991,0.04409925
14.75999991,-0.13489180
14.79999991,-0.26917330
14.83999991,-0.44831690
14.87999991,-0.58275090
14.91999991,-0.71703240
14.95999991,-0.85131380
14.99999991,-0.98574790
15.03999991,-1.12002900
15.07999991,-1.25446300
15.11999991,-1.34403500
15.15999991,-1.43360700
15.19999991,-1.47831700
15.23999991,-1.56788800
15.27999991,-1.61259800
15.31999991,-1.65746000
15.35999991,-1.65746000
15.39999991,-1.70217000
15.43999991,-1.65746000
15.47999991,-1.65746000
15.51999991,-1.61259800
15.55999991,-1.56788800
15.59999991,-1.47831700
15.63999990,-1.43360700
15.67999990,-1.29917300
15.71999990,-1.25446300
15.75999990,-1.12002900
15.79999990,-0.98574790
15.83999990,-0.85131380
15.87999990,-0.71703240
15.91999990,-0.53788870
15.95999990,-0.40360730
15.99999990,-0.26917330
16.03999990,-0.09002960
16.07999990,0.08880886
16.11999990,0.22324290
16.15999990,0.40238650
16.19999990,0.53666800
16.23999990,0.71581160
16.27999990,0.85009310
16.31999990,0.98452710
16.35999990,1.07409900
16.39999990,1.20838000
16.43999990,1.29795200
16.47999990,1.38752400
16.51999990,1.47709600
16.55999990,1.56666800
16.59999990,1.61137700
16.63999990,1.61137700
16.67999990,1.65624000
16.71999990,1.70094900
16.75999990,1.65624000
16.79999990,1.65624000
16.83999990,1.61137700
16.87999990,1.56666800
16.91999990,1.52180600
16.95999990,1.43238600
16.99999990,1.38752400
17.03999990,1.25324300
17.07999990,1.16367100
17.11999990,1.07409900
17.15999990,0.93966490
17.19999990,0.80538340
17.23999990,0.67110200
17.27999989,0.49195840
17.31999989,0.35752430
17.35999989,0.17838070
17.39999989,0.04409925
17.43999989,-0.13489180
17.47999989,-0.26917330
17.51999989,-0.40360730
17.55999989,-0.58275090
17.59999989,-0.71703240
17.63999989,-0.85131380
17.67999989,-0.94088570
17.71999989,-1.07532000
17.75999989,-1.16489100
17.79999989,-1.29917300
17.83999989,-1.38874500
17.87999989,-1.43360700
17.91999989,-1.47831700
17.95999989,-1.56788800
17.99999989,-1.61259800
18.03999989,-1.61259800
18.07999989,-1.61259800
18.11999989,-1.61259800
18.15999989,-1.56788800
18.19999989,-1.52302600
18.23999989,-1.47831700
18.27999989,-1.43360700
18.31999989,-1.34403500
18.35999989,-1.25446300
18.39999989,-1.16489100
18.43999989,-1.07532000
18.47999989,-0.89617600
18.51999989,-0.80660420
18.55999989,-0.67232280
18.59999989,-0.53788870
18.63999989,-0.35874510
18.67999989,-0.22446360
18.71999989,-0.09002960
18.75999989,0.04409925
18.79999989,0.22324290
18.83999989,0.35752430
18.87999989,0.53666800
18.91999989,0.67110200
18.95999988,0.80538340
18.99999988,0.89495530
19.03999988,1.02923700
19.07999988,1.16367100
19.11999988,1.25324300
19.15999988,1.34281400
19.19999988,1.43238600
19.23999988,1.47709600
19.27999988,1.52180600
19.31999988,1.56666800
19.35999988,1.56666800
19.39999988,1.61137700
19.43999988,1.56666800
19.47999988,1.56666800
19.51999988,1.56666800
19.55999988,1.47709600
19.59999988,1.43238600
19.63999988,1.38752400
19.67999988,1.29795200
19.71999988,1.20838000
19.75999988,1.11880900
19.79999988,0.98452710
19.83999988,0.85009310
19.87999988,0.71581160
19.91999988,0.62623980
19.95999988,0.49195840
19.99999988,0.35752430
20.03999988,0.17838070
20.07999988,-0.00061037
20.11999988,-0.13489180
20.15999988,-0.22446360
20.19999988,-0.35874510
20.23999988,-0.53788870
20.27999988,-0.67232280
20.31999988,-0.80660420
20.35999988,-0.89617600
20.39999988,-1.03045700
20.43999988,-1.12002900
20.47999988,-1.25446300
20.51999988,-1.29917300
20.55999988,-1.38874500
20.59999987,-1.43360700
20.63999987,-1.47831700
20.67999987,-1.52302600
20.71999987,-1.52302600
20.75999987,-1.52302600
20.79999987,-1.47831700
20.83999987,-1.47831700
20.87999987,-1.47831700
20.91999987,-1.38874500
20.95999987,-1.34403500
20.99999987,-1.25446300
21.03999987,-1.16489100
21.07999987,-1.07532000
21.11999987,-0.98574790
21.15999987,-0.85131380
21.19999987,-0.71703240
21.23999987,-0.62746050
21.27999987,-0.49317910
21.31999987,-0.35874510
21.35999987,-0.22446360
21.39999987,-0.09002960
21.43999987,0.04409925
21.47999987,0.22324290
21.51999987,0.35752430
21.55999987,0.49195840
21.59999987,0.62623980
21.63999987,0.76052120
21.67999987,0.85009310
21.71999987,0.98452710
21.75999987,1.07409900
21.79999987,1.20838000
21.83999987,1.29795200
21.87999987,1.34281400
21.91999987,1.38752400
21.95999987,1.43238600
21.99999987,1.47709600
22.03999987,1.52180600
22.07999987,1.52180600
22.11999987,1.52180600
22.15999987,1.47709600
22.19999987,1.47709600
22.23999986,1.43238600
22.27999986,1.38752400
22.31999986,1.29795200
22.35999986,1.25324300
22.39999986,1.11880900
22.43999986,1.02923700
22.47999986,0.89495530
22.51999986,0.80538340
22.55999986,0.67110200
22.59999986,0.53666800
22.63999986,0.44709620
22.67999986,0.31281470
22.71999986,0.17838070
22.75999986,-0.00061037
22.79999986,-0.13489180
22.83999986,-0.22446360
22.87999986,-0.35874510
22.91999986,-0.49317910
22.95999986,-0.62746050
22.99999986,-0.76174200
23.03999986,-0.89617600
23.07999986,-0.98574790
23.11999986,-1.07532000
23.15999986,-1.16489100
23.19999986,-1.25446300
23.23999986,-1.29917300
23.27999986,-1.38874500
23.31999986,-1.43360700
23.35999986,-1.43360700
23.39999986,-1.47831700
23.43999986,-1.43360700
23.47999986,-1.43360700
23.51999986,-1.43360700
23.55999986,-1.38874500
23.59999986,-1.34403500
23.63999986,-1.25446300
23.67999986,-1.20960100
23.71999986,-1.07532000
23.75999986,-1.03045700
23.79999986,-0.94088570
23.83999986,-0.80660420
23.87999985,-0.71703240
23.91999985,-0.58275090
23.95999985,-0.44831690
23.99999985,-0.31403550
24.03999985,-0.17960140
24.07999985,-0.04531999
24.11999985,0.08880886
24.15999985,0.17838070
24.19999985,0.35752430
24.23999985,0.49195840
24.27999985,0.58153020
24.31999985,0.71581160
24.35999985,0.85009310
24.39999985,0.89495530
24.43999985,1.07409900
24.47999985,1.11880900
24.51999985,1.20838000
24.55999985,1.29795200
24.59999985,1.34281400
24.63999985,1.38752400
24.67999985,1.43238600
24.71999985,1.43238600
24.75999985,1.43238600
24.79999985,1.43238600
24.83999985,1.43238600
24.87999985,1.43238600
24.91999985,1.38752400
24.95999985,1.29795200
24.99999985,1.25324300
25.03999985,1.16367100
25.07999985,1.07409900
25.11999985,0.98452710
25.15999985,0.89495530
25.19999985,0.76052120
25.23999985,0.67110200
25.27999985,0.53666800
25.31999985,0.40238650
25.35999985,0.31281470
25.39999985,0.13367110
25.43999985,-0.00061037
25.47999985,-0.13489180
25.51999984,-0.22446360
25.55999984,-0.35874510
25.59999984,-0.49317910
25.63999984,-0.62746050
25.67999984,-0.71703240
25.71999984,-0.85131380
25.75999984,-0.94088570
25.79999984,-1.03045700
25.83999984,-1.12002900
25.87999984,-1.16489100
25.91999984,-1.25446300
25.95999984,-1.29917300
25.99999984,-1.34403500
26.03999984,-1.38874500
26.07999984,-1.38874500
26.11999984,-1.43360700
26.15999984,-1.38874500
26.19999984,-1.34403500
26.23999984,-1.29917300
26.27999984,-1.29917300
26.31999984,-1.20960100
26.35999984,-1.12002900
26.39999984,-1.07532000
26.43999984,-0.98574790
26.47999984,-0.89617600
26.51999984,-0.76174200
26.55999984,-0.67232280
26.59999984,-0.53788870
26.63999984,-0.40360730
26.67999984,-0.26917330
26.71999984,-0.17960140
26.75999984,-0.04531999
26.79999984,0.08880886
26.83999984,0.22324290
26.87999984,0.35752430
26.91999984,0.44709620
26.95999984,0.58153020
26.99999984,0.71581160
27.03999984,0.80538340
27.07999984,0.89495530
27.11999984,0.98452710
27.15999983,1.07409900
27.19999983,1.16367100
27.23999983,1.20838000
27.27999983,1.25324300
27.31999983,1.34281400
27.35999983,1.34281400
27.39999983,1.38752400
27.43999983,1.38752400
27.47999983,1.38752400
27.51999983,1.38752400
27.55999983,1.34281400
27.59999983,1.29795200
27.63999983,1.25324300
27.67999983,1.20838000
27.71999983,1.07409900
27.75999983,1.02923700
27.79999983,0.93966490
27.83999983,0.85009310
27.87999983,0.71581160
27.91999983,0.62623980
27.95999983,0.49195840
27.99999983,0.35752430
28.03999983,0.26795250
28.07999983,0.13367110
28.11999983,-0.00061037
28.15999983,-0.13489180
28.19999983,-0.26917330
28.23999983,-0.35874510
28.27999983,-0.49317910
28.31999983,-0.58275090
28.35999983,-0.71703240
28.39999983,-0.80660420
28.43999983,-0.89617600
28.47999983,-0.98574790
28.51999983,-1.07532000
28.55999983,-1.12002900
28.59999983,-1.20960100
28.63999983,-1.25446300
28.67999983,-1.25446300
28.71999983,-1.29917300
28.75999983,-1.29917300
28.79999982,-1.29917300
28.83999982,-1.29917300
28.87999982,-1.25446300
28.91999982,-1.25446300
28.95999982,-1.20960100
28.99999982,-1.12002900
29.03999982,-1.07532000
29.07999982,-0.98574790
29.11999982,-0.89617600
29.15999982,-0.85131380
29.19999982,-0.71703240
29.23999982,-0.62746050
29.27999982,-0.49317910
29.31999982,-0.35874510
29.35999982,-0.26917330
29.39999982,-0.13489180
29.43999982,-0.00061037
29.47999982,0.08880886
29.51999982,0.22324290
29.55999982,0.35752430
29.59999982,0.44709620
29.63999982,0.53666800
29.67999982,0.67110200
29.71999982,0.76052120
29.75999982,0.85009310
29.79999982,0.93966490
29.83999982,1.02923700
29.87999982,1.11880900
29.91999982,1.16367100
29.95999982,1.20838000
29.99999982,1.25324300
30.03999982,1.29795200
30.07999982,1.34281400
30.11999982,1.34281400
30.15999982,1.34281400
30.19999982,1.29795200
30.23999982,1.25324300
30.27999982,1.20838000
30.31999982,1.20838000
30.35999982,1.11880900
30.39999982,1.07409900
30.43999982,0.98452710
30.47999981,0.89495530
30.51999981,0.76052120
30.55999981,0.67110200
30.59999981,0.58153020
30.63999981,0.44709620
30.67999981,0.35752430
30.71999981,0.22324290
30.75999981,0.13367110
30.79999981,-0.00061037
30.83999981,-0.13489180
30.87999981,-0.22446360
30.91999981,-0.35874510
30.95999981,-0.49317910
30.99999981,-0.58275090
31.03999981,-0.67232280
31.07999981,-0.76174200
31.11999981,-0.89617600
31.15999981,-0.94088570
31.19999981,-1.03045700
31.23999981,-1.07532000
31.27999981,-1.12002900
31.31999981,-1.16489100
31.35999981,-1.25446300
31.39999981,-1.25446300
31.43999981,-1.25446300
31.47999981,-1.25446300
31.51999981,-1.25446300
31.55999981,-1.20960100
31.59999981,-1.16489100
31.63999981,-1.12002900
31.67999981,-1.07532000
31.71999981,-1.03045700
31.75999981,-0.94088570
31.79999981,-0.85131380
31.83999981,-0.76174200
31.87999981,-0.67232280
31.91999981,-0.53788870
31.95999981,-0.44831690
31.99999981,-0.35874510
32.03999981,-0.22446360
32.07999981,-0.13489180
32.11999980,-0.00061037
32.15999980,0.08880886
32.19999980,0.17838070
32.23999980,0.35752430
32.27999980,0.44709620
32.31999980,0.53666800
32.35999980,0.62623980
32.39999980,0.76052120
32.43999980,0.80538340
32.47999980,0.89495530
32.51999980,0.98452710
32.55999980,1.07409900
32.59999980,1.11880900
32.63999980,1.16367100
32.67999980,1.20838000
32.71999980,1.25324300
32.75999980,1.25324300
32.79999980,1.25324300
32.83999980,1.25324300
32.87999980,1.20838000
32.91999980,1.20838000
32.95999980,1.16367100
