Time	Channel A
(us)	(V)

0.00000000	-0.89617600
0.04000000	-0.94088570
0.08000000	-0.98574790
0.12000000	-1.07532000
0.16000000	-1.12002900
0.20000000	-1.12002900
0.24000000	-1.16489100
0.28000000	-1.16489100
0.32000000	-1.16489100
0.36000000	-1.16489100
0.40000000	-1.12002900
0.44000000	-1.12002900
0.48000000	-1.07532000
0.52000000	-1.03045700
0.56000000	-0.94088570
0.60000000	-0.89617600
0.64000000	-0.80660420
0.68000000	-0.76174200
0.72000000	-0.67232280
0.76000000	-0.58275090
0.80000000	-0.44831690
0.83999999	-0.35874510
0.87999999	-0.26917330
0.91999999	-0.13489180
0.95999999	-0.04531999
0.99999999	0.08880886
1.03999999	0.17838070
1.07999999	0.31281470
1.11999999	0.40238650
1.15999999	0.49195840
1.19999999	0.62623980
1.23999999	0.71581160
1.27999999	0.76052120
1.31999999	0.85009310
1.35999999	0.89495530
1.39999999	1.02923700
1.43999999	1.07409900
1.47999999	1.11880900
1.51999999	1.11880900
1.55999999	1.16367100
1.59999999	1.20838000
1.63999999	1.20838000
1.67999999	1.20838000
1.71999999	1.16367100
1.75999999	1.11880900
1.79999999	1.11880900
1.83999999	1.07409900
1.87999999	1.02923700
1.91999999	0.93966490
1.95999999	0.89495530
1.99999999	0.80538340
2.03999999	0.71581160
2.07999999	0.62623980
2.11999999	0.53666800
2.15999999	0.44709620
2.19999999	0.31281470
2.23999999	0.22324290
2.27999999	0.08880886
2.31999999	-0.00061037
2.35999999	-0.09002960
2.39999999	-0.17960140
2.43999999	-0.31403550
2.47999998	-0.40360730
2.51999998	-0.53788870
2.55999998	-0.58275090
2.59999998	-0.67232280
2.63999998	-0.76174200
2.67999998	-0.85131380
2.71999998	-0.89617600
2.75999998	-0.98574790
2.79999998	-1.03045700
2.83999998	-1.07532000
2.87999998	-1.07532000
2.91999998	-1.07532000
2.95999998	-1.12002900
2.99999998	-1.12002900
3.03999998	-1.12002900
3.07999998	-1.07532000
3.11999998	-1.07532000
3.15999998	-1.03045700
3.19999998	-0.98574790
3.23999998	-0.89617600
3.27999998	-0.85131380
3.31999998	-0.76174200
3.35999998	-0.71703240
3.39999998	-0.62746050
3.43999998	-0.53788870
3.47999998	-0.40360730
3.51999998	-0.31403550
3.55999998	-0.22446360
3.59999998	-0.09002960
3.63999998	-0.00061037
3.67999998	0.08880886
3.71999998	0.17838070
3.75999998	0.31281470
3.79999998	0.35752430
3.83999998	0.49195840
3.87999998	0.53666800
3.91999998	0.67110200
3.95999998	0.76052120
3.99999998	0.80538340
4.03999998	0.89495530
4.07999998	0.93966490
4.11999997	1.02923700
4.15999997	1.07409900
4.19999997	1.07409900
4.23999997	1.11880900
4.27999997	1.11880900
4.31999997	1.16367100
4.35999997	1.11880900
4.39999997	1.11880900
4.43999997	1.11880900
4.47999997	1.07409900
4.51999997	1.02923700
4.55999997	0.93966490
4.59999997	0.89495530
4.63999997	0.85009310
4.67999997	0.76052120
4.71999997	0.67110200
4.75999997	0.58153020
4.79999997	0.49195840
4.83999997	0.35752430
4.87999997	0.31281470
4.91999997	0.17838070
4.95999997	0.08880886
4.99999997	-0.00061037
5.03999997	-0.09002960
5.07999997	-0.17960140
5.11999997	-0.31403550
5.15999997	-0.35874510
5.19999997	-0.49317910
5.23999997	-0.58275090
5.27999997	-0.67232280
5.31999997	-0.71703240
5.35999997	-0.80660420
5.39999997	-0.85131380
5.43999997	-0.94088570
5.47999997	-0.98574790
5.51999997	-1.03045700
5.55999997	-1.03045700
5.59999997	-1.07532000
5.63999997	-1.07532000
5.67999997	-1.07532000
5.71999997	-1.07532000
5.75999996	-1.07532000
5.79999996	-1.03045700
5.83999996	-0.98574790
5.87999996	-0.94088570
5.91999996	-0.85131380
5.95999996	-0.80660420
5.99999996	-0.71703240
6.03999996	-0.67232280
6.07999996	-0.58275090
6.11999996	-0.49317910
6.15999996	-0.40360730
6.19999996	-0.31403550
6.23999996	-0.17960140
6.27999996	-0.09002960
6.31999996	-0.00061037
6.35999996	0.08880886
6.39999996	0.17838070
6.43999996	0.31281470
6.47999996	0.35752430
6.51999996	0.49195840
6.55999996	0.58153020
6.59999996	0.67110200
6.63999996	0.71581160
6.67999996	0.80538340
6.71999996	0.85009310
6.75999996	0.89495530
6.79999996	0.98452710
6.83999996	1.02923700
6.87999996	1.02923700
6.91999996	1.07409900
6.95999996	1.07409900
6.99999996	1.07409900
7.03999996	1.07409900
7.07999996	1.07409900
7.11999996	1.02923700
7.15999996	1.02923700
7.19999996	0.98452710
7.23999996	0.89495530
7.27999996	0.85009310
7.31999996	0.80538340
7.35999996	0.71581160
7.39999996	0.62623980
7.43999995	0.53666800
7.47999995	0.44709620
7.51999995	0.35752430
7.55999995	0.31281470
7.59999995	0.17838070
7.63999995	0.08880886
7.67999995	-0.00061037
7.71999995	-0.09002960
7.75999995	-0.17960140
7.79999995	-0.31403550
7.83999995	-0.40360730
7.87999995	-0.49317910
7.91999995	-0.58275090
7.95999995	-0.62746050
7.99999995	-0.71703240
8.03999995	-0.76174200
8.07999995	-0.85131380
8.11999995	-0.89617600
8.15999995	-0.94088570
8.19999995	-0.94088570
8.23999995	-0.98574790
8.27999995	-1.03045700
8.31999995	-1.03045700
8.35999995	-1.03045700
8.39999995	-1.03045700
8.43999995	-0.98574790
8.47999995	-0.94088570
8.51999995	-0.89617600
8.55999995	-0.89617600
8.59999995	-0.80660420
8.63999995	-0.76174200
8.67999995	-0.71703240
8.71999995	-0.58275090
8.75999995	-0.53788870
8.79999995	-0.44831690
8.83999995	-0.35874510
8.87999995	-0.26917330
8.91999995	-0.17960140
8.95999995	-0.09002960
8.99999995	-0.00061037
9.03999995	0.08880886
9.07999994	0.17838070
9.11999994	0.31281470
9.15999994	0.40238650
9.19999994	0.49195840
9.23999994	0.62623980
9.27999994	0.76052120
9.31999994	0.93966490
9.35999994	1.20838000
9.39999994	1.52180600
9.43999994	1.83538300
9.47999994	2.14880800
9.51999994	2.46223300
9.55999994	2.68623900
9.59999994	2.86538300
9.63999994	2.95480200
9.67999994	2.91009200
9.71999994	2.82052100
9.75999994	2.55180500
9.79999994	2.23838000
9.83999994	1.83538300
9.87999994	1.38752400
9.91999994	0.89495530
9.95999994	0.35752430
9.99999994	-0.09002960
10.03999994	-0.53788870
10.07999994	-0.94088570
10.11999994	-1.29917300
10.15999994	-1.52302600
10.19999994	-1.65746000
10.23999994	-1.74703200
10.27999994	-1.74703200
10.31999994	-1.65746000
10.35999994	-1.56788800
10.39999994	-1.43360700
10.43999994	-1.25446300
10.47999994	-1.07532000
10.51999994	-0.98574790
10.55999994	-0.89617600
10.59999994	-0.85131380
10.63999994	-0.85131380
10.67999994	-0.94088570
10.71999993	-1.07532000
10.75999993	-1.25446300
10.79999993	-1.47831700
10.83999993	-1.70217000
10.87999993	-1.92617600
10.91999993	-2.10531900
10.95999993	-2.28431000
10.99999993	-2.37388200
11.03999993	-2.41874500
11.07999993	-2.37388200
11.11999993	-2.23960100
11.15999993	-2.01574800
11.19999993	-1.74703200
11.23999993	-1.43360700
11.27999993	-1.03045700
11.31999993	-0.62746050
11.35999993	-0.17960140
11.39999993	0.26795250
11.43999993	0.67110200
11.47999993	1.02923700
11.51999993	1.29795200
11.55999993	1.56666800
11.59999993	1.74581100
11.63999993	1.83538300
11.67999993	1.92495500
11.71999993	1.92495500
11.75999993	1.92495500
11.79999993	1.92495500
11.83999993	1.92495500
11.87999993	1.92495500
11.91999993	1.96966500
11.95999993	1.96966500
11.99999993	2.01452700
12.03999993	2.05923700
12.07999993	2.10409900
12.11999993	2.14880800
12.15999993	2.14880800
12.19999993	2.14880800
12.23999993	2.14880800
12.27999993	2.10409900
12.31999993	1.96966500
12.35999992	1.88009300
12.39999992	1.70094900
12.43999992	1.47709600
12.47999992	1.25324300
12.51999992	0.98452710
12.55999992	0.71581160
12.59999992	0.40238650
12.63999992	0.13367110
12.67999992	-0.22446360
12.71999992	-0.53788870
12.75999992	-0.76174200
12.79999992	-1.03045700
12.83999992	-1.25446300
12.87999992	-1.47831700
12.91999992	-1.61259800
12.95999992	-1.74703200
12.99999992	-1.83660400
13.03999992	-1.92617600
13.07999992	-1.97088500
13.11999992	-1.97088500
13.15999992	-1.97088500
13.19999992	-1.97088500
13.23999992	-1.97088500
13.27999992	-1.97088500
13.31999992	-1.97088500
13.35999992	-1.97088500
13.39999992	-1.97088500
13.43999992	-1.97088500
13.47999992	-1.97088500
13.51999992	-1.97088500
13.55999992	-1.92617600
13.59999992	-1.88131400
13.63999992	-1.79174200
13.67999992	-1.74703200
13.71999992	-1.61259800
13.75999992	-1.43360700
13.79999992	-1.25446300
13.83999992	-1.07532000
13.87999992	-0.85131380
13.91999992	-0.58275090
13.95999992	-0.35874510
13.99999991	-0.04531999
14.03999991	0.26795250
14.07999991	0.53666800
14.11999991	0.80538340
14.15999991	1.07409900
14.19999991	1.29795200
14.23999991	1.47709600
14.27999991	1.65624000
14.31999991	1.83538300
14.35999991	1.92495500
14.39999991	2.01452700
14.43999991	2.05923700
14.47999991	2.10409900
14.51999991	2.14880800
14.55999991	2.14880800
14.59999991	2.10409900
14.63999991	2.10409900
14.67999991	2.05923700
14.71999991	2.01452700
14.75999991	1.96966500
14.79999991	1.92495500
14.83999991	1.92495500
14.87999991	1.83538300
14.91999991	1.79052100
14.95999991	1.74581100
14.99999991	1.61137700
15.03999991	1.52180600
15.07999991	1.43238600
15.11999991	1.29795200
15.15999991	1.11880900
15.19999991	0.93966490
15.23999991	0.76052120
15.27999991	0.49195840
15.31999991	0.31281470
15.35999991	-0.00061037
15.39999991	-0.22446360
15.43999991	-0.49317910
15.47999991	-0.71703240
15.51999991	-0.98574790
15.55999991	-1.20960100
15.59999991	-1.43360700
15.63999990	-1.56788800
15.67999990	-1.74703200
15.71999990	-1.88131400
15.75999990	-1.97088500
15.79999990	-2.06045700
15.83999990	-2.10531900
15.87999990	-2.15002900
15.91999990	-2.15002900
15.95999990	-2.15002900
15.99999990	-2.10531900
16.03999990	-2.06045700
16.07999990	-1.97088500
16.11999990	-1.92617600
16.15999990	-1.83660400
16.19999990	-1.79174200
16.23999990	-1.70217000
16.27999990	-1.61259800
16.31999990	-1.52302600
16.35999990	-1.43360700
16.39999990	-1.29917300
16.43999990	-1.16489100
16.47999990	-1.03045700
16.51999990	-0.89617600
16.55999990	-0.71703240
16.59999990	-0.53788870
16.63999990	-0.31403550
16.67999990	-0.13489180
16.71999990	0.13367110
16.75999990	0.31281470
16.79999990	0.53666800
16.83999990	0.80538340
16.87999990	1.02923700
16.91999990	1.25324300
16.95999990	1.43238600
16.99999990	1.61137700
17.03999990	1.79052100
17.07999990	1.92495500
17.11999990	1.96966500
17.15999990	2.10409900
17.19999990	2.14880800
17.23999990	2.19351800
17.27999989	2.14880800
17.31999989	2.14880800
17.35999989	2.14880800
17.39999989	2.10409900
17.43999989	2.01452700
17.47999989	1.92495500
17.51999989	1.83538300
17.55999989	1.79052100
17.59999989	1.65624000
17.63999989	1.52180600
17.67999989	1.43238600
17.71999989	1.29795200
17.75999989	1.16367100
17.79999989	1.02923700
17.83999989	0.89495530
17.87999989	0.71581160
17.91999989	0.58153020
17.95999989	0.40238650
17.99999989	0.22324290
18.03999989	0.04409925
18.07999989	-0.17960140
18.11999989	-0.35874510
18.15999989	-0.58275090
18.19999989	-0.80660420
18.23999989	-0.98574790
18.27999989	-1.16489100
18.31999989	-1.38874500
18.35999989	-1.52302600
18.39999989	-1.70217000
18.43999989	-1.79174200
18.47999989	-1.92617600
18.51999989	-2.01574800
18.55999989	-2.10531900
18.59999989	-2.10531900
18.63999989	-2.15002900
18.67999989	-2.10531900
18.71999989	-2.06045700
18.75999989	-2.01574800
18.79999989	-1.97088500
18.83999989	-1.83660400
18.87999989	-1.79174200
18.91999989	-1.65746000
18.95999988	-1.52302600
18.99999988	-1.43360700
19.03999988	-1.25446300
19.07999988	-1.12002900
19.11999988	-0.98574790
19.15999988	-0.89617600
19.19999988	-0.71703240
19.23999988	-0.53788870
19.27999988	-0.35874510
19.31999988	-0.22446360
19.35999988	-0.04531999
19.39999988	0.13367110
19.43999988	0.31281470
19.47999988	0.49195840
19.51999988	0.71581160
19.55999988	0.89495530
19.59999988	1.07409900
19.63999988	1.25324300
19.67999988	1.43238600
19.71999988	1.56666800
19.75999988	1.74581100
19.79999988	1.83538300
19.83999988	1.92495500
19.87999988	2.01452700
19.91999988	2.10409900
19.95999988	2.14880800
19.99999988	2.14880800
20.03999988	2.10409900
20.07999988	2.10409900
20.11999988	2.01452700
20.15999988	1.96966500
20.19999988	1.83538300
20.23999988	1.74581100
20.27999988	1.61137700
20.31999988	1.52180600
20.35999988	1.34281400
20.39999988	1.20838000
20.43999988	1.07409900
20.47999988	0.89495530
20.51999988	0.76052120
20.55999988	0.62623980
20.59999987	0.44709620
20.63999987	0.26795250
20.67999987	0.13367110
20.71999987	-0.04531999
20.75999987	-0.22446360
20.79999987	-0.40360730
20.83999987	-0.58275090
20.87999987	-0.71703240
20.91999987	-0.89617600
20.95999987	-1.07532000
20.99999987	-1.25446300
21.03999987	-1.38874500
21.07999987	-1.52302600
21.11999987	-1.65746000
21.15999987	-1.79174200
21.19999987	-1.83660400
21.23999987	-1.97088500
21.27999987	-1.97088500
21.31999987	-2.01574800
21.35999987	-2.01574800
21.39999987	-2.01574800
21.43999987	-1.97088500
21.47999987	-1.92617600
21.51999987	-1.83660400
21.55999987	-1.74703200
21.59999987	-1.61259800
21.63999987	-1.52302600
21.67999987	-1.38874500
21.71999987	-1.25446300
21.75999987	-1.07532000
21.79999987	-0.94088570
21.83999987	-0.76174200
21.87999987	-0.62746050
21.91999987	-0.44831690
21.95999987	-0.26917330
21.99999987	-0.13489180
22.03999987	0.04409925
22.07999987	0.22324290
22.11999987	0.35752430
22.15999987	0.53666800
22.19999987	0.71581160
22.23999986	0.85009310
22.27999986	1.02923700
22.31999986	1.16367100
22.35999986	1.34281400
22.39999986	1.43238600
22.43999986	1.56666800
22.47999986	1.70094900
22.51999986	1.79052100
22.55999986	1.83538300
22.59999986	1.92495500
22.63999986	1.96966500
22.67999986	1.96966500
22.71999986	1.96966500
22.75999986	1.96966500
22.79999986	1.96966500
22.83999986	1.88009300
22.87999986	1.79052100
22.91999986	1.74581100
22.95999986	1.61137700
22.99999986	1.47709600
23.03999986	1.38752400
23.07999986	1.20838000
23.11999986	1.07409900
23.15999986	0.89495530
23.19999986	0.71581160
23.23999986	0.53666800
23.27999986	0.40238650
23.31999986	0.22324290
23.35999986	0.04409925
23.39999986	-0.09002960
23.43999986	-0.26917330
23.47999986	-0.44831690
23.51999986	-0.58275090
23.55999986	-0.76174200
23.59999986	-0.89617600
23.63999986	-1.03045700
23.67999986	-1.16489100
23.71999986	-1.29917300
23.75999986	-1.43360700
23.79999986	-1.52302600
23.83999986	-1.61259800
23.87999985	-1.70217000
23.91999985	-1.79174200
23.95999985	-1.83660400
23.99999985	-1.88131400
24.03999985	-1.88131400
24.07999985	-1.88131400
24.11999985	-1.83660400
24.15999985	-1.79174200
24.19999985	-1.74703200
24.23999985	-1.65746000
24.27999985	-1.61259800
24.31999985	-1.47831700
24.35999985	-1.34403500
24.39999985	-1.25446300
24.43999985	-1.07532000
24.47999985	-0.94088570
24.51999985	-0.76174200
24.55999985	-0.58275090
24.59999985	-0.40360730
24.63999985	-0.26917330
24.67999985	-0.09002960
24.71999985	0.08880886
24.75999985	0.26795250
24.79999985	0.40238650
24.83999985	0.53666800
24.87999985	0.71581160
24.91999985	0.85009310
24.95999985	1.02923700
24.99999985	1.16367100
25.03999985	1.25324300
25.07999985	1.38752400
25.11999985	1.47709600
25.15999985	1.56666800
25.19999985	1.65624000
25.23999985	1.74581100
25.27999985	1.79052100
25.31999985	1.83538300
25.35999985	1.83538300
25.39999985	1.88009300
25.43999985	1.83538300
25.47999985	1.83538300
25.51999984	1.79052100
25.55999984	1.74581100
25.59999984	1.61137700
25.63999984	1.56666800
25.67999984	1.43238600
25.71999984	1.29795200
25.75999984	1.20838000
25.79999984	1.02923700
25.83999984	0.89495530
25.87999984	0.71581160
25.91999984	0.53666800
25.95999984	0.35752430
25.99999984	0.22324290
26.03999984	0.04409925
26.07999984	-0.13489180
26.11999984	-0.26917330
26.15999984	-0.44831690
26.19999984	-0.62746050
26.23999984	-0.71703240
26.27999984	-0.89617600
26.31999984	-1.03045700
26.35999984	-1.16489100
26.39999984	-1.25446300
26.43999984	-1.38874500
26.47999984	-1.47831700
26.51999984	-1.52302600
26.55999984	-1.61259800
26.59999984	-1.65746000
26.63999984	-1.74703200
26.67999984	-1.74703200
26.71999984	-1.79174200
26.75999984	-1.79174200
26.79999984	-1.74703200
26.83999984	-1.70217000
26.87999984	-1.65746000
26.91999984	-1.61259800
26.95999984	-1.47831700
26.99999984	-1.43360700
27.03999984	-1.29917300
27.07999984	-1.16489100
27.11999984	-1.03045700
27.15999983	-0.89617600
27.19999983	-0.76174200
27.23999983	-0.58275090
27.27999983	-0.40360730
27.31999983	-0.26917330
27.35999983	-0.09002960
27.39999983	0.04409925
27.43999983	0.26795250
27.47999983	0.35752430
27.51999983	0.53666800
27.55999983	0.71581160
27.59999983	0.85009310
27.63999983	0.98452710
27.67999983	1.11880900
27.71999983	1.25324300
27.75999983	1.34281400
27.79999983	1.43238600
27.83999983	1.52180600
27.87999983	1.61137700
27.91999983	1.65624000
27.95999983	1.70094900
27.99999983	1.74581100
28.03999983	1.74581100
28.07999983	1.74581100
28.11999983	1.74581100
28.15999983	1.74581100
28.19999983	1.65624000
28.23999983	1.61137700
28.27999983	1.56666800
28.31999983	1.43238600
28.35999983	1.34281400
28.39999983	1.25324300
28.43999983	1.11880900
28.47999983	0.98452710
28.51999983	0.85009310
28.55999983	0.67110200
28.59999983	0.53666800
28.63999983	0.35752430
28.67999983	0.17838070
28.71999983	0.04409925
28.75999983	-0.13489180
28.79999982	-0.26917330
28.83999982	-0.40360730
28.87999982	-0.58275090
28.91999982	-0.71703240
28.95999982	-0.89617600
28.99999982	-0.98574790
29.03999982	-1.07532000
29.07999982	-1.25446300
29.11999982	-1.34403500
29.15999982	-1.43360700
29.19999982	-1.47831700
29.23999982	-1.56788800
29.27999982	-1.61259800
29.31999982	-1.65746000
29.35999982	-1.65746000
29.39999982	-1.65746000
29.43999982	-1.65746000
29.47999982	-1.61259800
29.51999982	-1.61259800
29.55999982	-1.56788800
29.59999982	-1.47831700
29.63999982	-1.43360700
29.67999982	-1.29917300
29.71999982	-1.25446300
29.75999982	-1.12002900
29.79999982	-0.98574790
29.83999982	-0.85131380
29.87999982	-0.71703240
29.91999982	-0.53788870
29.95999982	-0.40360730
29.99999982	-0.22446360
30.03999982	-0.09002960
30.07999982	0.04409925
30.11999982	0.22324290
30.15999982	0.40238650
30.19999982	0.53666800
30.23999982	0.67110200
30.27999982	0.80538340
30.31999982	0.93966490
30.35999982	1.07409900
30.39999982	1.20838000
30.43999982	1.29795200
30.47999981	1.38752400
30.51999981	1.43238600
30.55999981	1.52180600
30.59999981	1.56666800
30.63999981	1.61137700
30.67999981	1.65624000
30.71999981	1.65624000
30.75999981	1.70094900
30.79999981	1.65624000
30.83999981	1.61137700
30.87999981	1.56666800
30.91999981	1.52180600
30.95999981	1.43238600
30.99999981	1.38752400
31.03999981	1.25324300
31.07999981	1.16367100
31.11999981	1.07409900
31.15999981	0.89495530
31.19999981	0.80538340
31.23999981	0.67110200
31.27999981	0.49195840
31.31999981	0.35752430
31.35999981	0.17838070
31.39999981	0.04409925
31.43999981	-0.09002960
31.47999981	-0.26917330
31.51999981	-0.40360730
31.55999981	-0.53788870
31.59999981	-0.71703240
31.63999981	-0.85131380
31.67999981	-0.94088570
31.71999981	-1.07532000
31.75999981	-1.16489100
31.79999981	-1.29917300
31.83999981	-1.34403500
31.87999981	-1.43360700
31.91999981	-1.47831700
31.95999981	-1.52302600
31.99999981	-1.56788800
32.03999981	-1.56788800
32.07999981	-1.61259800
32.11999980	-1.61259800
32.15999980	-1.56788800
32.19999980	-1.47831700
32.23999980	-1.43360700
32.27999980	-1.38874500
32.31999980	-1.29917300
32.35999980	-1.25446300
32.39999980	-1.12002900
32.43999980	-1.07532000
32.47999980	-0.89617600
32.51999980	-0.80660420
32.55999980	-0.67232280
32.59999980	-0.53788870
32.63999980	-0.35874510
32.67999980	-0.22446360
32.71999980	-0.09002960
32.75999980	0.04409925
32.79999980	0.22324290
32.83999980	0.35752430
32.87999980	0.49195840
32.91999980	0.62623980
