Time,Channel A
(us),(V)

0.00000000,-0.04531999
0.04000000,-0.31403550
0.08000000,-0.53788870
0.12000000,-0.80660420
0.16000000,-1.03045700
0.20000000,-1.20960100
0.24000000,-1.34403500
0.28000000,-1.43360700
0.32000000,-1.52302600
0.36000000,-1.56788800
0.40000000,-1.56788800
0.44000000,-1.52302600
0.48000000,-1.47831700
0.52000000,-1.43360700
0.56000000,-1.34403500
0.60000000,-1.29917300
0.64000000,-1.20960100
0.68000000,-1.16489100
0.72000000,-1.12002900
0.76000000,-1.07532000
0.80000000,-1.07532000
0.83999999,-1.07532000
0.87999999,-1.07532000
0.91999999,-1.07532000
0.95999999,-1.07532000
0.99999999,-1.07532000
1.03999999,-1.07532000
1.07999999,-0.98574790
1.11999999,-0.94088570
1.15999999,-0.85131380
1.19999999,-0.71703240
1.23999999,-0.58275090
1.27999999,-0.35874510
1.31999999,-0.17960140
1.35999999,0.04409925
1.39999999,0.31281470
1.43999999,0.49195840
1.47999999,0.71581160
1.51999999,0.98452710
1.55999999,1.20838000
1.59999999,1.43238600
1.63999999,1.70094900
1.67999999,1.96966500
1.71999999,2.19351800
1.75999999,2.46223300
1.79999999,2.64137700
1.83999999,2.77581100
1.87999999,2.86538300
1.91999999,2.86538300
1.95999999,2.82052100
1.99999999,2.68623900
2.03999999,2.46223300
2.07999999,2.19351800
2.11999999,1.92495500
2.15999999,1.56666800
2.19999999,1.20838000
2.23999999,0.85009310
2.27999999,0.49195840
2.31999999,0.17838070
2.35999999,-0.09002960
2.39999999,-0.35874510
2.43999999,-0.53788870
2.47999998,-0.67232280
2.51999998,-0.76174200
2.55999998,-0.85131380
2.59999998,-0.85131380
2.63999998,-0.85131380
2.67999998,-0.85131380
2.71999998,-0.85131380
2.75999998,-0.85131380
2.79999998,-0.89617600
2.83999998,-0.94088570
2.87999998,-1.07532000
2.91999998,-1.16489100
2.95999998,-1.29917300
2.99999998,-1.47831700
3.03999998,-1.70217000
3.07999998,-1.88131400
3.11999998,-2.06045700
3.15999998,-2.23960100
3.19999998,-2.37388200
3.23999998,-2.46345400
3.27999998,-2.50831600
3.31999998,-2.50831600
3.35999998,-2.41874500
3.39999998,-2.28431000
3.43999998,-2.10531900
3.47999998,-1.83660400
3.51999998,-1.61259800
3.55999998,-1.29917300
3.59999998,-0.98574790
3.63999998,-0.62746050
3.67999998,-0.31403550
3.71999998,-0.00061037
3.75999998,0.26795250
3.79999998,0.53666800
3.83999998,0.71581160
3.87999998,0.89495530
3.91999998,1.02923700
3.95999998,1.07409900
3.99999998,1.16367100
4.03999998,1.16367100
4.07999998,1.20838000
4.11999997,1.25324300
4.15999997,1.34281400
4.19999997,1.43238600
4.23999997,1.56666800
4.27999997,1.74581100
4.31999997,1.92495500
4.35999997,2.10409900
4.39999997,2.28309000
4.43999997,2.46223300
4.47999997,2.55180500
4.51999997,2.64137700
4.55999997,2.68623900
4.59999997,2.68623900
4.63999997,2.59666700
4.67999997,2.46223300
4.71999997,2.28309000
4.75999997,2.01452700
4.79999997,1.74581100
4.83999997,1.43238600
4.87999997,1.07409900
4.91999997,0.71581160
4.95999997,0.35752430
4.99999997,0.04409925
5.03999997,-0.22446360
5.07999997,-0.53788870
5.11999997,-0.71703240
5.15999997,-0.94088570
5.19999997,-1.07532000
5.23999997,-1.16489100
5.27999997,-1.25446300
5.31999997,-1.29917300
5.35999997,-1.34403500
5.39999997,-1.38874500
5.43999997,-1.38874500
5.47999997,-1.43360700
5.51999997,-1.47831700
5.55999997,-1.52302600
5.59999997,-1.61259800
5.63999997,-1.70217000
5.67999997,-1.79174200
5.71999997,-1.88131400
5.75999996,-2.01574800
5.79999996,-2.15002900
5.83999996,-2.23960100
5.87999996,-2.32917300
5.91999996,-2.32917300
5.95999996,-2.32917300
5.99999996,-2.28431000
6.03999996,-2.19473900
6.07999996,-2.06045700
6.11999996,-1.83660400
6.15999996,-1.61259800
6.19999996,-1.38874500
6.23999996,-1.07532000
6.27999996,-0.76174200
6.31999996,-0.44831690
6.35999996,-0.13489180
6.39999996,0.17838070
6.43999996,0.49195840
6.47999996,0.71581160
6.51999996,0.93966490
6.55999996,1.11880900
6.59999996,1.29795200
6.63999996,1.43238600
6.67999996,1.52180600
6.71999996,1.56666800
6.75999996,1.61137700
6.79999996,1.65624000
6.83999996,1.70094900
6.87999996,1.74581100
6.91999996,1.74581100
6.95999996,1.79052100
6.99999996,1.79052100
7.03999996,1.83538300
7.07999996,1.92495500
7.11999996,1.96966500
7.15999996,2.01452700
7.19999996,2.05923700
7.23999996,2.10409900
7.27999996,2.10409900
7.31999996,2.10409900
7.35999996,2.05923700
7.39999996,1.96966500
7.43999995,1.88009300
7.47999995,1.74581100
7.51999995,1.52180600
7.55999995,1.29795200
7.59999995,1.07409900
7.63999995,0.76052120
7.67999995,0.49195840
7.71999995,0.17838070
7.75999995,-0.09002960
7.79999995,-0.35874510
7.83999995,-0.62746050
7.87999995,-0.89617600
7.91999995,-1.07532000
7.95999995,-1.29917300
7.99999995,-1.43360700
8.03999995,-1.56788800
8.07999995,-1.65746000
8.11999995,-1.70217000
8.15999995,-1.79174200
8.19999995,-1.79174200
8.23999995,-1.79174200
8.27999995,-1.83660400
8.31999995,-1.83660400
8.35999995,-1.83660400
8.39999995,-1.83660400
8.43999995,-1.83660400
8.47999995,-1.83660400
8.51999995,-1.88131400
8.55999995,-1.88131400
8.59999995,-1.83660400
8.63999995,-1.83660400
8.67999995,-1.83660400
8.71999995,-1.79174200
8.75999995,-1.70217000
8.79999995,-1.61259800
8.83999995,-1.43360700
8.87999995,-1.29917300
8.91999995,-1.12002900
8.95999995,-0.89617600
8.99999995,-0.67232280
9.03999995,-0.40360730
9.07999994,-0.17960140
9.11999994,0.08880886
9.15999994,0.35752430
9.19999994,0.62623980
9.23999994,0.85009310
9.27999994,1.07409900
9.31999994,1.29795200
9.35999994,1.47709600
9.39999994,1.61137700
9.43999994,1.74581100
9.47999994,1.83538300
9.51999994,1.88009300
9.55999994,1.92495500
9.59999994,1.96966500
9.63999994,1.96966500
9.67999994,1.96966500
9.71999994,1.92495500
9.75999994,1.92495500
9.79999994,1.92495500
9.83999994,1.88009300
9.87999994,1.83538300
9.91999994,1.79052100
9.95999994,1.79052100
9.99999994,1.74581100
10.03999994,1.65624000
10.07999994,1.61137700
10.11999994,1.52180600
10.15999994,1.43238600
10.19999994,1.29795200
10.23999994,1.16367100
10.27999994,0.98452710
10.31999994,0.80538340
10.35999994,0.62623980
10.39999994,0.35752430
10.43999994,0.13367110
10.47999994,-0.09002960
10.51999994,-0.35874510
10.55999994,-0.58275090
10.59999994,-0.80660420
10.63999994,-1.03045700
10.67999994,-1.25446300
10.71999993,-1.43360700
10.75999993,-1.56788800
10.79999993,-1.70217000
10.83999993,-1.79174200
10.87999993,-1.88131400
10.91999993,-1.97088500
10.95999993,-1.97088500
10.99999993,-1.97088500
11.03999993,-1.97088500
11.07999993,-1.97088500
11.11999993,-1.92617600
11.15999993,-1.88131400
11.19999993,-1.79174200
11.23999993,-1.79174200
11.27999993,-1.70217000
11.31999993,-1.65746000
11.35999993,-1.56788800
11.39999993,-1.47831700
11.43999993,-1.38874500
11.47999993,-1.29917300
11.51999993,-1.16489100
11.55999993,-1.07532000
11.59999993,-0.89617600
11.63999993,-0.80660420
11.67999993,-0.58275090
11.71999993,-0.40360730
11.75999993,-0.22446360
11.79999993,-0.00061037
11.83999993,0.17838070
11.87999993,0.40238650
11.91999993,0.62623980
11.95999993,0.85009310
11.99999993,1.07409900
12.03999993,1.25324300
12.07999993,1.43238600
12.11999993,1.61137700
12.15999993,1.74581100
12.19999993,1.83538300
12.23999993,1.92495500
12.27999993,1.96966500
12.31999993,2.01452700
12.35999992,2.01452700
12.39999992,2.05923700
12.43999992,2.01452700
12.47999992,1.96966500
12.51999992,1.92495500
12.55999992,1.83538300
12.59999992,1.74581100
12.63999992,1.70094900
12.67999992,1.61137700
12.71999992,1.52180600
12.75999992,1.38752400
12.79999992,1.29795200
12.83999992,1.20838000
12.87999992,1.07409900
12.91999992,0.93966490
12.95999992,0.80538340
12.99999992,0.67110200
13.03999992,0.49195840
13.07999992,0.35752430
13.11999992,0.13367110
13.15999992,-0.04531999
13.19999992,-0.22446360
13.23999992,-0.44831690
13.27999992,-0.62746050
13.31999992,-0.85131380
13.35999992,-1.03045700
13.39999992,-1.20960100
13.43999992,-1.38874500
13.47999992,-1.52302600
13.51999992,-1.65746000
13.55999992,-1.79174200
13.59999992,-1.88131400
13.63999992,-1.92617600
13.67999992,-1.97088500
13.71999992,-2.01574800
13.75999992,-1.97088500
13.79999992,-1.97088500
13.83999992,-1.92617600
13.87999992,-1.83660400
13.91999992,-1.79174200
13.95999992,-1.70217000
13.99999991,-1.61259800
14.03999991,-1.47831700
14.07999991,-1.38874500
14.11999991,-1.25446300
14.15999991,-1.16489100
14.19999991,-1.03045700
14.23999991,-0.89617600
14.27999991,-0.71703240
14.31999991,-0.62746050
14.35999991,-0.44831690
14.39999991,-0.31403550
14.43999991,-0.13489180
14.47999991,-0.00061037
14.51999991,0.17838070
14.55999991,0.35752430
14.59999991,0.58153020
14.63999991,0.71581160
14.67999991,0.89495530
14.71999991,1.07409900
14.75999991,1.25324300
14.79999991,1.43238600
14.83999991,1.56666800
14.87999991,1.70094900
14.91999991,1.79052100
14.95999991,1.88009300
14.99999991,1.92495500
15.03999991,1.96966500
15.07999991,1.96966500
15.11999991,1.96966500
15.15999991,1.96966500
15.19999991,1.92495500
15.23999991,1.83538300
15.27999991,1.79052100
15.31999991,1.70094900
15.35999991,1.56666800
15.39999991,1.47709600
15.43999991,1.34281400
15.47999991,1.20838000
15.51999991,1.07409900
15.55999991,0.93966490
15.59999991,0.80538340
15.63999990,0.67110200
15.67999990,0.49195840
15.71999990,0.35752430
15.75999990,0.17838070
15.79999990,0.04409925
15.83999990,-0.09002960
15.87999990,-0.26917330
15.91999990,-0.40360730
15.95999990,-0.62746050
15.99999990,-0.76174200
16.03999990,-0.89617600
16.07999990,-1.07532000
16.11999990,-1.20960100
16.15999990,-1.38874500
16.19999990,-1.47831700
16.23999990,-1.61259800
16.27999990,-1.70217000
16.31999990,-1.79174200
16.35999990,-1.83660400
16.39999990,-1.88131400
16.43999990,-1.92617600
16.47999990,-1.88131400
16.51999990,-1.88131400
16.55999990,-1.83660400
16.59999990,-1.79174200
16.63999990,-1.65746000
16.67999990,-1.61259800
16.71999990,-1.47831700
16.75999990,-1.34403500
16.79999990,-1.25446300
16.83999990,-1.07532000
16.87999990,-0.94088570
16.91999990,-0.80660420
16.95999990,-0.67232280
16.99999990,-0.53788870
17.03999990,-0.35874510
17.07999990,-0.22446360
17.11999990,-0.04531999
17.15999990,0.08880886
17.19999990,0.26795250
17.23999990,0.40238650
17.27999989,0.58153020
17.31999989,0.71581160
17.35999989,0.89495530
17.39999989,1.02923700
17.43999989,1.16367100
17.47999989,1.29795200
17.51999989,1.43238600
17.55999989,1.52180600
17.59999989,1.61137700
17.63999989,1.74581100
17.67999989,1.79052100
17.71999989,1.83538300
17.75999989,1.88009300
17.79999989,1.88009300
17.83999989,1.88009300
17.87999989,1.83538300
17.91999989,1.79052100
17.95999989,1.74581100
17.99999989,1.65624000
18.03999989,1.56666800
18.07999989,1.43238600
18.11999989,1.34281400
18.15999989,1.20838000
18.19999989,1.07409900
18.23999989,0.89495530
18.27999989,0.76052120
18.31999989,0.62623980
18.35999989,0.44709620
18.39999989,0.31281470
18.43999989,0.13367110
18.47999989,-0.00061037
18.51999989,-0.17960140
18.55999989,-0.31403550
18.59999989,-0.44831690
18.63999989,-0.62746050
18.67999989,-0.76174200
18.71999989,-0.89617600
18.75999989,-1.03045700
18.79999989,-1.16489100
18.83999989,-1.25446300
18.87999989,-1.38874500
18.91999989,-1.47831700
18.95999988,-1.56788800
18.99999988,-1.65746000
19.03999988,-1.70217000
19.07999988,-1.74703200
19.11999988,-1.79174200
19.15999988,-1.79174200
19.19999988,-1.74703200
19.23999988,-1.74703200
19.27999988,-1.70217000
19.31999988,-1.61259800
19.35999988,-1.56788800
19.39999988,-1.43360700
19.43999988,-1.34403500
19.47999988,-1.20960100
19.51999988,-1.07532000
19.55999988,-0.94088570
19.59999988,-0.80660420
19.63999988,-0.62746050
19.67999988,-0.49317910
19.71999988,-0.31403550
19.75999988,-0.17960140
19.79999988,-0.00061037
19.83999988,0.13367110
19.87999988,0.31281470
19.91999988,0.44709620
19.95999988,0.58153020
19.99999988,0.71581160
20.03999988,0.89495530
20.07999988,0.98452710
20.11999988,1.11880900
20.15999988,1.25324300
20.19999988,1.34281400
20.23999988,1.43238600
20.27999988,1.52180600
20.31999988,1.61137700
20.35999988,1.65624000
20.39999988,1.74581100
20.43999988,1.74581100
20.47999988,1.79052100
20.51999988,1.79052100
20.55999988,1.74581100
20.59999987,1.70094900
20.63999987,1.65624000
20.67999987,1.61137700
20.71999987,1.52180600
20.75999987,1.43238600
20.79999987,1.29795200
20.83999987,1.16367100
20.87999987,1.07409900
20.91999987,0.89495530
20.95999987,0.71581160
20.99999987,0.58153020
21.03999987,0.44709620
21.07999987,0.31281470
21.11999987,0.13367110
21.15999987,-0.04531999
21.19999987,-0.17960140
21.23999987,-0.35874510
21.27999987,-0.49317910
21.31999987,-0.62746050
21.35999987,-0.76174200
21.39999987,-0.89617600
21.43999987,-1.03045700
21.47999987,-1.12002900
21.51999987,-1.25446300
21.55999987,-1.34403500
21.59999987,-1.43360700
21.63999987,-1.47831700
21.67999987,-1.56788800
21.71999987,-1.61259800
21.75999987,-1.65746000
21.79999987,-1.65746000
21.83999987,-1.65746000
21.87999987,-1.65746000
21.91999987,-1.61259800
21.95999987,-1.61259800
21.99999987,-1.52302600
22.03999987,-1.47831700
22.07999987,-1.34403500
22.11999987,-1.25446300
22.15999987,-1.16489100
22.19999987,-1.03045700
22.23999986,-0.89617600
22.27999986,-0.76174200
22.31999986,-0.62746050
22.35999986,-0.49317910
22.39999986,-0.31403550
22.43999986,-0.17960140
22.47999986,-0.00061037
22.51999986,0.13367110
22.55999986,0.31281470
22.59999986,0.44709620
22.63999986,0.58153020
22.67999986,0.71581160
22.71999986,0.89495530
22.75999986,0.98452710
22.79999986,1.07409900
22.83999986,1.20838000
22.87999986,1.29795200
22.91999986,1.43238600
22.95999986,1.47709600
22.99999986,1.52180600
23.03999986,1.56666800
23.07999986,1.61137700
23.11999986,1.65624000
23.15999986,1.61137700
23.19999986,1.65624000
23.23999986,1.61137700
23.27999986,1.61137700
23.31999986,1.56666800
23.35999986,1.47709600
23.39999986,1.43238600
23.43999986,1.34281400
23.47999986,1.25324300
23.51999986,1.11880900
23.55999986,0.98452710
23.59999986,0.85009310
23.63999986,0.71581160
23.67999986,0.58153020
23.71999986,0.44709620
23.75999986,0.26795250
23.79999986,0.13367110
23.83999986,-0.00061037
23.87999985,-0.17960140
23.91999985,-0.35874510
23.95999985,-0.49317910
23.99999985,-0.62746050
24.03999985,-0.76174200
24.07999985,-0.89617600
24.11999985,-0.98574790
24.15999985,-1.07532000
24.19999985,-1.20960100
24.23999985,-1.29917300
24.27999985,-1.34403500
24.31999985,-1.43360700
24.35999985,-1.47831700
24.39999985,-1.52302600
24.43999985,-1.56788800
24.47999985,-1.56788800
24.51999985,-1.61259800
24.55999985,-1.56788800
24.59999985,-1.52302600
24.63999985,-1.52302600
24.67999985,-1.43360700
24.71999985,-1.38874500
24.75999985,-1.29917300
24.79999985,-1.20960100
24.83999985,-1.07532000
24.87999985,-0.98574790
24.91999985,-0.89617600
24.95999985,-0.76174200
24.99999985,-0.62746050
25.03999985,-0.44831690
25.07999985,-0.31403550
25.11999985,-0.17960140
25.15999985,-0.00061037
25.19999985,0.08880886
25.23999985,0.26795250
25.27999985,0.44709620
25.31999985,0.53666800
25.35999985,0.71581160
25.39999985,0.80538340
25.43999985,0.93966490
25.47999985,1.07409900
25.51999984,1.16367100
25.55999984,1.25324300
25.59999984,1.34281400
25.63999984,1.43238600
25.67999984,1.47709600
25.71999984,1.52180600
25.75999984,1.56666800
25.79999984,1.56666800
25.83999984,1.56666800
25.87999984,1.56666800
25.91999984,1.56666800
25.95999984,1.52180600
25.99999984,1.47709600
26.03999984,1.38752400
26.07999984,1.34281400
26.11999984,1.25324300
26.15999984,1.16367100
26.19999984,1.07409900
26.23999984,0.93966490
26.27999984,0.80538340
26.31999984,0.71581160
26.35999984,0.53666800
26.39999984,0.40238650
26.43999984,0.26795250
26.47999984,0.13367110
26.51999984,-0.00061037
26.55999984,-0.17960140
26.59999984,-0.31403550
26.63999984,-0.44831690
26.67999984,-0.58275090
26.71999984,-0.71703240
26.75999984,-0.85131380
26.79999984,-0.94088570
26.83999984,-1.07532000
26.87999984,-1.12002900
26.91999984,-1.25446300
26.95999984,-1.34403500
26.99999984,-1.38874500
27.03999984,-1.43360700
27.07999984,-1.47831700
27.11999984,-1.47831700
27.15999983,-1.47831700
27.19999983,-1.47831700
27.23999983,-1.47831700
27.27999983,-1.43360700
27.31999983,-1.43360700
27.35999983,-1.34403500
27.39999983,-1.29917300
27.43999983,-1.20960100
27.47999983,-1.12002900
27.51999983,-1.03045700
27.55999983,-0.89617600
27.59999983,-0.80660420
27.63999983,-0.71703240
27.67999983,-0.58275090
27.71999983,-0.40360730
27.75999983,-0.26917330
27.79999983,-0.13489180
27.83999983,-0.00061037
27.87999983,0.13367110
27.91999983,0.26795250
27.95999983,0.40238650
27.99999983,0.53666800
28.03999983,0.67110200
28.07999983,0.80538340
28.11999983,0.89495530
28.15999983,1.02923700
28.19999983,1.11880900
28.23999983,1.20838000
28.27999983,1.29795200
28.31999983,1.34281400
28.35999983,1.43238600
28.39999983,1.43238600
28.43999983,1.47709600
28.47999983,1.52180600
28.51999983,1.52180600
28.55999983,1.52180600
28.59999983,1.47709600
28.63999983,1.43238600
28.67999983,1.38752400
28.71999983,1.34281400
28.75999983,1.25324300
28.79999982,1.20838000
28.83999982,1.07409900
28.87999982,1.02923700
28.91999982,0.85009310
28.95999982,0.76052120
28.99999982,0.67110200
29.03999982,0.49195840
29.07999982,0.35752430
29.11999982,0.26795250
29.15999982,0.13367110
29.19999982,-0.04531999
29.23999982,-0.17960140
29.27999982,-0.26917330
29.31999982,-0.40360730
29.35999982,-0.58275090
29.39999982,-0.67232280
29.43999982,-0.80660420
29.47999982,-0.89617600
29.51999982,-0.98574790
29.55999982,-1.12002900
29.59999982,-1.16489100
29.63999982,-1.25446300
29.67999982,-1.29917300
29.71999982,-1.38874500
29.75999982,-1.43360700
29.79999982,-1.43360700
29.83999982,-1.43360700
29.87999982,-1.43360700
29.91999982,-1.43360700
29.95999982,-1.38874500
29.99999982,-1.34403500
30.03999982,-1.29917300
30.07999982,-1.25446300
30.11999982,-1.12002900
30.15999982,-1.07532000
30.19999982,-0.98574790
30.23999982,-0.85131380
30.27999982,-0.76174200
30.31999982,-0.67232280
30.35999982,-0.53788870
30.39999982,-0.35874510
30.43999982,-0.26917330
30.47999981,-0.13489180
30.51999981,-0.00061037
30.55999981,0.13367110
30.59999981,0.26795250
30.63999981,0.40238650
30.67999981,0.53666800
30.71999981,0.62623980
30.75999981,0.76052120
30.79999981,0.85009310
30.83999981,0.98452710
30.87999981,1.07409900
30.91999981,1.16367100
30.95999981,1.25324300
30.99999981,1.29795200
31.03999981,1.34281400
31.07999981,1.38752400
31.11999981,1.43238600
31.15999981,1.43238600
31.19999981,1.43238600
31.23999981,1.43238600
31.27999981,1.43238600
31.31999981,1.38752400
31.35999981,1.34281400
31.39999981,1.25324300
31.43999981,1.20838000
31.47999981,1.11880900
31.51999981,1.02923700
31.55999981,0.89495530
31.59999981,0.85009310
31.63999981,0.71581160
31.67999981,0.62623980
31.71999981,0.49195840
31.75999981,0.35752430
31.79999981,0.22324290
31.83999981,0.08880886
31.87999981,-0.04531999
31.91999981,-0.13489180
31.95999981,-0.26917330
31.99999981,-0.40360730
32.03999981,-0.53788870
32.07999981,-0.62746050
32.11999980,-0.76174200
32.15999980,-0.85131380
32.19999980,-0.94088570
32.23999980,-1.07532000
32.27999980,-1.12002900
32.31999980,-1.20960100
32.35999980,-1.25446300
32.39999980,-1.29917300
32.43999980,-1.34403500
32.47999980,-1.34403500
32.51999980,-1.38874500
32.55999980,-1.34403500
32.59999980,-1.34403500
32.63999980,-1.29917300
32.67999980,-1.29917300
32.71999980,-1.25446300
32.75999980,-1.16489100
32.79999980,-1.07532000
32.83999980,-1.03045700
32.87999980,-0.89617600
32.91999980,-0.80660420
