Time,Channel A
(us),(V)

0.00000000,-1.03045700
0.04000000,-0.89617600
0.08000000,-0.80660420
0.12000000,-0.67232280
0.16000000,-0.58275090
0.20000000,-0.44831690
0.24000000,-0.31403550
0.28000000,-0.17960140
0.32000000,-0.09002960
0.36000000,0.04409925
0.40000000,0.17838070
0.44000000,0.31281470
0.48000000,0.44709620
0.52000000,0.53666800
0.56000000,0.67110200
0.60000000,0.76052120
0.64000000,0.85009310
0.68000000,0.93966490
0.72000000,1.07409900
0.76000000,1.16367100
0.80000000,1.20838000
0.83999999,1.25324300
0.87999999,1.29795200
0.91999999,1.34281400
0.95999999,1.38752400
0.99999999,1.38752400
1.03999999,1.38752400
1.07999999,1.38752400
1.11999999,1.34281400
1.15999999,1.29795200
1.19999999,1.25324300
1.23999999,1.20838000
1.27999999,1.11880900
1.31999999,1.07409900
1.35999999,0.93966490
1.39999999,0.89495530
1.43999999,0.76052120
1.47999999,0.62623980
1.51999999,0.53666800
1.55999999,0.44709620
1.59999999,0.31281470
1.63999999,0.17838070
1.67999999,0.04409925
1.71999999,-0.04531999
1.75999999,-0.22446360
1.79999999,-0.31403550
1.83999999,-0.44831690
1.87999999,-0.58275090
1.91999999,-0.67232280
1.95999999,-0.76174200
1.99999999,-0.89617600
2.03999999,-0.94088570
2.07999999,-1.03045700
2.11999999,-1.12002900
2.15999999,-1.16489100
2.19999999,-1.20960100
2.23999999,-1.25446300
2.27999999,-1.29917300
2.31999999,-1.29917300
2.35999999,-1.29917300
2.39999999,-1.29917300
2.43999999,-1.29917300
2.47999998,-1.25446300
2.51999998,-1.20960100
2.55999998,-1.12002900
2.59999998,-1.07532000
2.63999998,-1.03045700
2.67999998,-0.94088570
2.71999998,-0.89617600
2.75999998,-0.76174200
2.79999998,-0.67232280
2.83999998,-0.53788870
2.87999998,-0.40360730
2.91999998,-0.31403550
2.95999998,-0.17960140
2.99999998,-0.04531999
3.03999998,0.04409925
3.07999998,0.17838070
3.11999998,0.31281470
3.15999998,0.40238650
3.19999998,0.53666800
3.23999998,0.62623980
3.27999998,0.71581160
3.31999998,0.85009310
3.35999998,0.89495530
3.39999998,1.02923700
3.43999998,1.07409900
3.47999998,1.16367100
3.51999998,1.20838000
3.55999998,1.25324300
3.59999998,1.29795200
3.63999998,1.29795200
3.67999998,1.29795200
3.71999998,1.29795200
3.75999998,1.29795200
3.79999998,1.25324300
3.83999998,1.25324300
3.87999998,1.20838000
3.91999998,1.11880900
3.95999998,1.07409900
3.99999998,0.98452710
4.03999998,0.89495530
4.07999998,0.80538340
4.11999997,0.71581160
4.15999997,0.62623980
4.19999997,0.49195840
4.23999997,0.40238650
4.27999997,0.31281470
4.31999997,0.13367110
4.35999997,0.04409925
4.39999997,-0.09002960
4.43999997,-0.22446360
4.47999997,-0.31403550
4.51999997,-0.40360730
4.55999997,-0.53788870
4.59999997,-0.62746050
4.63999997,-0.71703240
4.67999997,-0.80660420
4.71999997,-0.94088570
4.75999997,-0.98574790
4.79999997,-1.07532000
4.83999997,-1.12002900
4.87999997,-1.12002900
4.91999997,-1.20960100
4.95999997,-1.25446300
4.99999997,-1.25446300
5.03999997,-1.25446300
5.07999997,-1.25446300
5.11999997,-1.20960100
5.15999997,-1.16489100
5.19999997,-1.12002900
5.23999997,-1.07532000
5.27999997,-1.03045700
5.31999997,-0.94088570
5.35999997,-0.89617600
5.39999997,-0.80660420
5.43999997,-0.71703240
5.47999997,-0.58275090
5.51999997,-0.49317910
5.55999997,-0.40360730
5.59999997,-0.26917330
5.63999997,-0.17960140
5.67999997,-0.04531999
5.71999997,0.04409925
5.75999996,0.17838070
5.79999996,0.26795250
5.83999996,0.40238650
5.87999996,0.49195840
5.91999996,0.58153020
5.95999996,0.71581160
5.99999996,0.80538340
6.03999996,0.89495530
6.07999996,0.98452710
6.11999996,1.07409900
6.15999996,1.11880900
6.19999996,1.16367100
6.23999996,1.20838000
6.27999996,1.25324300
6.31999996,1.25324300
6.35999996,1.25324300
6.39999996,1.25324300
6.43999996,1.20838000
6.47999996,1.25324300
6.51999996,1.16367100
6.55999996,1.11880900
6.59999996,1.07409900
6.63999996,1.02923700
6.67999996,0.89495530
6.71999996,0.85009310
6.75999996,0.76052120
6.79999996,0.67110200
6.83999996,0.58153020
6.87999996,0.49195840
6.91999996,0.35752430
6.95999996,0.26795250
6.99999996,0.13367110
7.03999996,-0.00061037
7.07999996,-0.09002960
7.11999996,-0.17960140
7.15999996,-0.31403550
7.19999996,-0.40360730
7.23999996,-0.53788870
7.27999996,-0.62746050
7.31999996,-0.71703240
7.35999996,-0.80660420
7.39999996,-0.89617600
7.43999995,-0.94088570
7.47999995,-1.03045700
7.51999995,-1.07532000
7.55999995,-1.12002900
7.59999995,-1.12002900
7.63999995,-1.16489100
7.67999995,-1.16489100
7.71999995,-1.16489100
7.75999995,-1.16489100
7.79999995,-1.16489100
7.83999995,-1.12002900
7.87999995,-1.07532000
7.91999995,-1.03045700
7.95999995,-0.98574790
7.99999995,-0.89617600
8.03999995,-0.85131380
8.07999995,-0.76174200
8.11999995,-0.67232280
8.15999995,-0.53788870
8.19999995,-0.44831690
8.23999995,-0.35874510
8.27999995,-0.22446360
8.31999995,-0.13489180
8.35999995,-0.04531999
8.39999995,0.04409925
8.43999995,0.17838070
8.47999995,0.31281470
8.51999995,0.40238650
8.55999995,0.53666800
8.59999995,0.62623980
8.63999995,0.67110200
8.67999995,0.76052120
8.71999995,0.85009310
8.75999995,0.93966490
8.79999995,0.98452710
8.83999995,1.07409900
8.87999995,1.07409900
8.91999995,1.16367100
8.95999995,1.16367100
8.99999995,1.20838000
9.03999995,1.20838000
9.07999994,1.20838000
9.11999994,1.20838000
9.15999994,1.16367100
9.19999994,1.11880900
9.23999994,1.07409900
9.27999994,1.02923700
9.31999994,0.93966490
9.35999994,0.85009310
9.39999994,0.80538340
9.43999994,0.71581160
9.47999994,0.62623980
9.51999994,0.53666800
9.55999994,0.44709620
9.59999994,0.31281470
9.63999994,0.22324290
9.67999994,0.13367110
9.71999994,-0.00061037
9.75999994,-0.09002960
9.79999994,-0.22446360
9.83999994,-0.31403550
9.87999994,-0.40360730
9.91999994,-0.49317910
9.95999994,-0.58275090
9.99999994,-0.67232280
10.03999994,-0.76174200
10.07999994,-0.85131380
10.11999994,-0.89617600
10.15999994,-0.98574790
10.19999994,-1.03045700
10.23999994,-1.07532000
10.27999994,-1.07532000
10.31999994,-1.12002900
10.35999994,-1.12002900
10.39999994,-1.12002900
10.43999994,-1.12002900
10.47999994,-1.07532000
10.51999994,-1.07532000
10.55999994,-1.03045700
10.59999994,-0.98574790
10.63999994,-0.94088570
10.67999994,-0.89617600
10.71999993,-0.80660420
10.75999993,-0.71703240
10.79999993,-0.62746050
10.83999993,-0.53788870
10.87999993,-0.44831690
10.91999993,-0.31403550
10.95999993,-0.22446360
10.99999993,-0.13489180
11.03999993,-0.04531999
11.07999993,0.04409925
11.11999993,0.17838070
11.15999993,0.31281470
11.19999993,0.35752430
11.23999993,0.49195840
11.27999993,0.58153020
11.31999993,0.67110200
11.35999993,0.71581160
11.39999993,0.80538340
11.43999993,0.89495530
11.47999993,0.93966490
11.51999993,1.02923700
11.55999993,1.07409900
11.59999993,1.07409900
11.63999993,1.11880900
11.67999993,1.11880900
11.71999993,1.16367100
11.75999993,1.11880900
11.79999993,1.11880900
11.83999993,1.07409900
11.87999993,1.07409900
11.91999993,1.02923700
11.95999993,0.93966490
11.99999993,0.89495530
12.03999993,0.85009310
12.07999993,0.76052120
12.11999993,0.71581160
12.15999993,0.62623980
12.19999993,0.49195840
12.23999993,0.40238650
12.27999993,0.31281470
12.31999993,0.17838070
12.35999992,0.13367110
12.39999992,-0.00061037
12.43999992,-0.09002960
12.47999992,-0.17960140
12.51999992,-0.31403550
12.55999992,-0.40360730
12.59999992,-0.49317910
12.63999992,-0.58275090
12.67999992,-0.67232280
12.71999992,-0.71703240
12.75999992,-0.80660420
12.79999992,-0.89617600
12.83999992,-0.94088570
12.87999992,-0.98574790
12.91999992,-1.03045700
12.95999992,-1.07532000
12.99999992,-1.07532000
13.03999992,-1.07532000
13.07999992,-1.07532000
13.11999992,-1.07532000
13.15999992,-1.07532000
13.19999992,-1.03045700
13.23999992,-0.98574790
13.27999992,-0.94088570
13.31999992,-0.89617600
13.35999992,-0.80660420
13.39999992,-0.76174200
13.43999992,-0.67232280
13.47999992,-0.58275090
13.51999992,-0.49317910
13.55999992,-0.40360730
13.59999992,-0.35874510
13.63999992,-0.22446360
13.67999992,-0.13489180
13.71999992,-0.00061037
13.75999992,0.08880886
13.79999992,0.17838070
13.83999992,0.26795250
13.87999992,0.35752430
13.91999992,0.44709620
13.95999992,0.53666800
13.99999991,0.62623980
14.03999991,0.71581160
14.07999991,0.76052120
14.11999991,0.85009310
14.15999991,0.89495530
14.19999991,0.93966490
14.23999991,1.02923700
14.27999991,1.07409900
14.31999991,1.07409900
14.35999991,1.07409900
14.39999991,1.07409900
14.43999991,1.07409900
14.47999991,1.07409900
14.51999991,1.07409900
14.55999991,1.02923700
14.59999991,0.93966490
14.63999991,0.89495530
14.67999991,0.85009310
14.71999991,0.80538340
14.75999991,0.71581160
14.79999991,0.62623980
14.83999991,0.53666800
14.87999991,0.49195840
14.91999991,0.35752430
14.95999991,0.31281470
14.99999991,0.17838070
15.03999991,0.08880886
15.07999991,-0.00061037
15.11999991,-0.09002960
15.15999991,-0.17960140
15.19999991,-0.31403550
15.23999991,-0.35874510
15.27999991,-0.44831690
15.31999991,-0.53788870
15.35999991,-0.62746050
15.39999991,-0.71703240
15.43999991,-0.76174200
15.47999991,-0.85131380
15.51999991,-0.89617600
15.55999991,-0.94088570
15.59999991,-0.94088570
15.63999990,-0.98574790
15.67999990,-1.03045700
15.71999990,-1.03045700
15.75999990,-1.03045700
15.79999990,-1.03045700
15.83999990,-0.98574790
15.87999990,-0.94088570
15.91999990,-0.94088570
15.95999990,-0.89617600
15.99999990,-0.80660420
16.03999990,-0.76174200
16.07999990,-0.71703240
16.11999990,-0.62746050
16.15999990,-0.53788870
16.19999990,-0.44831690
16.23999990,-0.35874510
16.27999990,-0.26917330
16.31999990,-0.17960140
16.35999990,-0.09002960
16.39999990,-0.00061037
16.43999990,0.08880886
16.47999990,0.17838070
16.51999990,0.26795250
16.55999990,0.35752430
16.59999990,0.44709620
16.63999990,0.53666800
16.67999990,0.62623980
16.71999990,0.71581160
16.75999990,0.76052120
16.79999990,0.80538340
16.83999990,0.89495530
16.87999990,0.89495530
16.91999990,0.98452710
16.95999990,0.98452710
16.99999990,1.02923700
17.03999990,1.02923700
17.07999990,1.07409900
17.11999990,1.02923700
17.15999990,1.02923700
17.19999990,0.98452710
17.23999990,0.93966490
17.27999989,0.89495530
17.31999989,0.85009310
17.35999989,0.80538340
17.39999989,0.76052120
17.43999989,0.67110200
17.47999989,0.62623980
17.51999989,0.53666800
17.55999989,0.44709620
17.59999989,0.35752430
17.63999989,0.26795250
17.67999989,0.17838070
17.71999989,0.08880886
17.75999989,-0.00061037
17.79999989,-0.09002960
17.83999989,-0.17960140
17.87999989,-0.31403550
17.91999989,-0.35874510
17.95999989,-0.44831690
17.99999989,-0.53788870
18.03999989,-0.58275090
18.07999989,-0.71703240
18.11999989,-0.71703240
18.15999989,-0.76174200
18.19999989,-0.85131380
18.23999989,-0.89617600
18.27999989,-0.89617600
18.31999989,-0.94088570
18.35999989,-0.94088570
18.39999989,-0.98574790
18.43999989,-0.94088570
18.47999989,-0.98574790
18.51999989,-0.94088570
18.55999989,-0.89617600
18.59999989,-0.89617600
18.63999989,-0.85131380
18.67999989,-0.80660420
18.71999989,-0.71703240
18.75999989,-0.67232280
18.79999989,-0.58275090
18.83999989,-0.53788870
18.87999989,-0.40360730
18.91999989,-0.35874510
18.95999988,-0.26917330
18.99999988,-0.17960140
19.03999988,-0.09002960
19.07999988,-0.00061037
19.11999988,0.08880886
19.15999988,0.17838070
19.19999988,0.26795250
19.23999988,0.35752430
19.27999988,0.44709620
19.31999988,0.58153020
19.35999988,0.71581160
19.39999988,0.89495530
19.43999988,1.16367100
19.47999988,1.47709600
19.51999988,1.79052100
19.55999988,2.14880800
19.59999988,2.46223300
19.63999988,2.68623900
19.67999988,2.86538300
19.71999988,2.95480200
19.75999988,2.91009200
19.79999988,2.82052100
19.83999988,2.59666700
19.87999988,2.23838000
19.91999988,1.83538300
19.95999988,1.38752400
19.99999988,0.89495530
20.03999988,0.35752430
20.07999988,-0.13489180
20.11999988,-0.58275090
20.15999988,-0.98574790
20.19999988,-1.34403500
20.23999988,-1.61259800
20.27999988,-1.74703200
20.31999988,-1.79174200
20.35999988,-1.79174200
20.39999988,-1.74703200
20.43999988,-1.61259800
20.47999988,-1.43360700
20.51999988,-1.29917300
20.55999988,-1.12002900
20.59999987,-0.98574790
20.63999987,-0.89617600
20.67999987,-0.85131380
20.71999987,-0.85131380
20.75999987,-0.89617600
20.79999987,-1.07532000
20.83999987,-1.20960100
20.87999987,-1.43360700
20.91999987,-1.65746000
20.95999987,-1.88131400
20.99999987,-2.10531900
21.03999987,-2.23960100
21.07999987,-2.37388200
21.11999987,-2.37388200
21.15999987,-2.37388200
21.19999987,-2.23960100
21.23999987,-2.01574800
21.27999987,-1.74703200
21.31999987,-1.43360700
21.35999987,-1.03045700
21.39999987,-0.62746050
21.43999987,-0.17960140
21.47999987,0.26795250
21.51999987,0.67110200
21.55999987,1.07409900
21.59999987,1.34281400
21.63999987,1.56666800
21.67999987,1.79052100
21.71999987,1.88009300
21.75999987,1.92495500
21.79999987,1.96966500
21.83999987,1.96966500
21.87999987,1.96966500
21.91999987,1.96966500
21.95999987,1.96966500
21.99999987,2.01452700
22.03999987,2.01452700
22.07999987,2.05923700
22.11999987,2.10409900
22.15999987,2.10409900
22.19999987,2.10409900
22.23999986,2.14880800
22.27999986,2.14880800
22.31999986,2.10409900
22.35999986,2.05923700
22.39999986,1.96966500
22.43999986,1.79052100
22.47999986,1.61137700
22.51999986,1.43238600
22.55999986,1.20838000
22.59999986,0.93966490
22.63999986,0.67110200
22.67999986,0.35752430
22.71999986,0.08880886
22.75999986,-0.26917330
22.79999986,-0.53788870
22.83999986,-0.80660420
22.87999986,-1.07532000
22.91999986,-1.29917300
22.95999986,-1.47831700
22.99999986,-1.65746000
23.03999986,-1.79174200
23.07999986,-1.83660400
23.11999986,-1.97088500
23.15999986,-1.97088500
23.19999986,-2.01574800
23.23999986,-2.01574800
23.27999986,-2.01574800
23.31999986,-2.01574800
23.35999986,-2.01574800
23.39999986,-2.01574800
23.43999986,-2.01574800
23.47999986,-1.97088500
23.51999986,-1.97088500
23.55999986,-1.97088500
23.59999986,-1.92617600
23.63999986,-1.88131400
23.67999986,-1.83660400
23.71999986,-1.74703200
23.75999986,-1.65746000
23.79999986,-1.56788800
23.83999986,-1.38874500
23.87999985,-1.20960100
23.91999985,-1.03045700
23.95999985,-0.76174200
23.99999985,-0.53788870
24.03999985,-0.26917330
24.07999985,-0.00061037
24.11999985,0.26795250
24.15999985,0.53666800
24.19999985,0.80538340
24.23999985,1.07409900
24.27999985,1.29795200
24.31999985,1.47709600
24.35999985,1.70094900
24.39999985,1.83538300
24.43999985,1.96966500
24.47999985,2.01452700
24.51999985,2.10409900
24.55999985,2.14880800
24.59999985,2.14880800
24.63999985,2.14880800
24.67999985,2.14880800
24.71999985,2.10409900
24.75999985,2.10409900
24.79999985,2.05923700
24.83999985,2.01452700
24.87999985,1.96966500
24.91999985,1.92495500
24.95999985,1.83538300
24.99999985,1.79052100
25.03999985,1.70094900
25.07999985,1.61137700
25.11999985,1.52180600
25.15999985,1.38752400
25.19999985,1.20838000
25.23999985,1.07409900
25.27999985,0.89495530
25.31999985,0.67110200
25.35999985,0.44709620
25.39999985,0.22324290
25.43999985,-0.00061037
25.47999985,-0.26917330
25.51999984,-0.53788870
25.55999984,-0.76174200
25.59999984,-0.98574790
25.63999984,-1.25446300
25.67999984,-1.43360700
25.71999984,-1.61259800
25.75999984,-1.79174200
25.79999984,-1.92617600
25.83999984,-2.01574800
25.87999984,-2.10531900
25.91999984,-2.15002900
25.95999984,-2.15002900
25.99999984,-2.15002900
26.03999984,-2.15002900
26.07999984,-2.10531900
26.11999984,-2.06045700
26.15999984,-2.01574800
26.19999984,-1.92617600
26.23999984,-1.83660400
26.27999984,-1.79174200
26.31999984,-1.65746000
26.35999984,-1.61259800
26.39999984,-1.47831700
26.43999984,-1.38874500
26.47999984,-1.25446300
26.51999984,-1.12002900
26.55999984,-0.98574790
26.59999984,-0.85131380
26.63999984,-0.67232280
26.67999984,-0.44831690
26.71999984,-0.26917330
26.75999984,-0.04531999
26.79999984,0.13367110
26.83999984,0.35752430
26.87999984,0.62623980
26.91999984,0.85009310
26.95999984,1.07409900
26.99999984,1.25324300
27.03999984,1.43238600
27.07999984,1.61137700
27.11999984,1.79052100
27.15999983,1.92495500
27.19999983,2.01452700
27.23999983,2.10409900
27.27999983,2.14880800
27.31999983,2.19351800
27.35999983,2.19351800
27.39999983,2.19351800
27.43999983,2.14880800
27.47999983,2.05923700
27.51999983,2.01452700
27.55999983,1.92495500
27.59999983,1.83538300
27.63999983,1.74581100
27.67999983,1.61137700
27.71999983,1.52180600
27.75999983,1.38752400
27.79999983,1.29795200
27.83999983,1.16367100
27.87999983,0.98452710
27.91999983,0.85009310
27.95999983,0.71581160
27.99999983,0.53666800
28.03999983,0.35752430
28.07999983,0.17838070
28.11999983,-0.00061037
28.15999983,-0.22446360
28.19999983,-0.40360730
28.23999983,-0.62746050
28.27999983,-0.85131380
28.31999983,-1.03045700
28.35999983,-1.20960100
28.39999983,-1.43360700
28.43999983,-1.56788800
28.47999983,-1.70217000
28.51999983,-1.83660400
28.55999983,-1.97088500
28.59999983,-2.06045700
28.63999983,-2.10531900
28.67999983,-2.15002900
28.71999983,-2.15002900
28.75999983,-2.15002900
28.79999982,-2.10531900
28.83999982,-2.01574800
28.87999982,-1.97088500
28.91999982,-1.83660400
28.95999982,-1.74703200
28.99999982,-1.61259800
29.03999982,-1.52302600
29.07999982,-1.38874500
29.11999982,-1.25446300
29.15999982,-1.12002900
29.19999982,-0.98574790
29.23999982,-0.85131380
29.27999982,-0.67232280
29.31999982,-0.53788870
29.35999982,-0.35874510
29.39999982,-0.17960140
29.43999982,-0.00061037
29.47999982,0.17838070
29.51999982,0.35752430
29.55999982,0.53666800
29.59999982,0.71581160
29.63999982,0.89495530
29.67999982,1.07409900
29.71999982,1.25324300
29.75999982,1.43238600
29.79999982,1.61137700
29.83999982,1.74581100
29.87999982,1.88009300
29.91999982,1.96966500
29.95999982,2.05923700
29.99999982,2.10409900
30.03999982,2.14880800
30.07999982,2.14880800
30.11999982,2.10409900
30.15999982,2.05923700
30.19999982,2.01452700
30.23999982,1.92495500
30.27999982,1.88009300
30.31999982,1.74581100
30.35999982,1.61137700
30.39999982,1.47709600
30.43999982,1.38752400
30.47999981,1.20838000
30.51999981,1.07409900
30.55999981,0.89495530
30.59999981,0.71581160
30.63999981,0.58153020
30.67999981,0.40238650
30.71999981,0.26795250
30.75999981,0.08880886
30.79999981,-0.09002960
30.83999981,-0.26917330
30.87999981,-0.40360730
30.91999981,-0.58275090
30.95999981,-0.76174200
30.99999981,-0.94088570
31.03999981,-1.07532000
31.07999981,-1.25446300
31.11999981,-1.43360700
31.15999981,-1.56788800
31.19999981,-1.70217000
31.23999981,-1.79174200
31.27999981,-1.88131400
31.31999981,-1.97088500
31.35999981,-2.01574800
31.39999981,-2.01574800
31.43999981,-2.06045700
31.47999981,-2.01574800
31.51999981,-1.97088500
31.55999981,-1.92617600
31.59999981,-1.83660400
31.63999981,-1.74703200
31.67999981,-1.61259800
31.71999981,-1.52302600
31.75999981,-1.34403500
31.79999981,-1.25446300
31.83999981,-1.07532000
31.87999981,-0.89617600
31.91999981,-0.76174200
31.95999981,-0.58275090
31.99999981,-0.40360730
32.03999981,-0.26917330
32.07999981,-0.09002960
32.11999980,0.08880886
32.15999980,0.22324290
32.19999980,0.40238650
32.23999980,0.58153020
32.27999980,0.71581160
32.31999980,0.89495530
32.35999980,1.07409900
32.39999980,1.20838000
32.43999980,1.34281400
32.47999980,1.47709600
32.51999980,1.61137700
32.55999980,1.74581100
32.59999980,1.79052100
32.63999980,1.88009300
32.67999980,1.96966500
32.71999980,1.96966500
32.75999980,1.96966500
32.79999980,1.96966500
32.83999980,1.96966500
32.87999980,1.92495500
32.91999980,1.92495500
32.95999980,1.79052100
