Time	Channel A
(us)	(mV)

0.00000000	26.79525000
0.04000000	35.78295000
0.08000000	44.75539000
0.12000000	53.74309000
0.16000000	62.73079000
0.20000000	71.71850000
0.24000000	80.70620000
0.28000000	85.19241000
0.32000000	89.67863000
0.36000000	94.18011000
0.40000000	98.66634000
0.44000000	98.66634000
0.48000000	98.66634000
0.52000000	98.66634000
0.56000000	94.18011000
0.60000000	89.67863000
0.64000000	85.19241000
0.68000000	80.70620000
0.72000000	76.20471000
0.76000000	71.71850000
0.80000000	71.71850000
0.83999999	67.21701000
0.87999999	67.21701000
0.91999999	67.21701000
0.95999999	62.73079000
0.99999999	58.24457000
1.03999999	53.74309000
1.07999999	53.74309000
1.11999999	49.25687000
1.15999999	44.75539000
1.19999999	35.78295000
1.23999999	31.28147000
1.27999999	22.29377000
1.31999999	13.32133000
1.35999999	8.81984900
1.39999999	-0.15259250
1.43999999	-4.63881300
1.47999999	-18.11273000
1.51999999	-22.59896000
1.55999999	-27.10044000
1.59999999	-36.08813000
1.63999999	-40.57436000
1.67999999	-54.04828000
1.71999999	-54.04828000
1.75999999	-58.54976000
1.79999999	-63.03598000
1.83999999	-63.03598000
1.87999999	-63.03598000
1.91999999	-63.03598000
1.95999999	-58.54976000
1.99999999	-58.54976000
2.03999999	-54.04828000
2.07999999	-49.56206000
2.11999999	-45.06058000
2.15999999	-40.57436000
2.19999999	-36.08813000
2.23999999	-36.08813000
2.27999999	-31.58666000
2.31999999	-27.10044000
2.35999999	-22.59896000
2.39999999	-18.11273000
2.43999999	-13.62651000
2.47999998	-9.12503300
2.51999998	-4.63881300
2.55999998	-0.15259250
2.59999998	4.33362800
2.63999998	8.81984900
2.67999998	17.80755000
2.71999998	22.29377000
2.75999998	31.28147000
2.79999998	26.79525000
2.83999998	35.78295000
2.87999998	53.74309000
2.91999998	58.24457000
2.95999998	58.24457000
2.99999998	62.73079000
3.03999998	67.21701000
3.07999998	71.71850000
3.11999998	76.20471000
3.15999998	71.71850000
3.19999998	80.70620000
3.23999998	80.70620000
3.27999998	76.20471000
3.31999998	76.20471000
3.35999998	76.20471000
3.39999998	71.71850000
3.43999998	71.71850000
3.47999998	67.21701000
3.51999998	62.73079000
3.55999998	58.24457000
3.59999998	53.74309000
3.63999998	49.25687000
3.67999998	44.75539000
3.71999998	40.26917000
3.75999998	35.78295000
3.79999998	31.28147000
3.83999998	22.29377000
3.87999998	17.80755000
3.91999998	13.32133000
3.95999998	8.81984900
3.99999998	4.33362800
4.03999998	-0.15259250
4.07999998	-4.63881300
4.11999997	-13.62651000
4.15999997	-18.11273000
4.19999997	-22.59896000
4.23999997	-31.58666000
4.27999997	-36.08813000
4.31999997	-36.08813000
4.35999997	-40.57436000
4.39999997	-49.56206000
4.43999997	-49.56206000
4.47999997	-54.04828000
4.51999997	-54.04828000
4.55999997	-54.04828000
4.59999997	-58.54976000
4.63999997	-58.54976000
4.67999997	-58.54976000
4.71999997	-54.04828000
4.75999997	-54.04828000
4.79999997	-49.56206000
4.83999997	-49.56206000
4.87999997	-40.57436000
4.91999997	-36.08813000
4.95999997	-36.08813000
4.99999997	-27.10044000
5.03999997	-22.59896000
5.07999997	-22.59896000
5.11999997	-18.11273000
5.15999997	-9.12503300
5.19999997	-4.63881300
5.23999997	-0.15259250
5.27999997	-0.15259250
5.31999997	8.81984900
5.35999997	13.32133000
5.39999997	17.80755000
5.43999997	26.79525000
5.47999997	26.79525000
5.51999997	31.28147000
5.55999997	35.78295000
5.59999997	40.26917000
5.63999997	44.75539000
5.67999997	49.25687000
5.71999997	53.74309000
5.75999996	53.74309000
5.79999996	58.24457000
5.83999996	58.24457000
5.87999996	58.24457000
5.91999996	62.73079000
5.95999996	58.24457000
5.99999996	62.73079000
6.03999996	62.73079000
6.07999996	62.73079000
6.11999996	58.24457000
6.15999996	53.74309000
6.19999996	49.25687000
6.23999996	53.74309000
6.27999996	40.26917000
6.31999996	35.78295000
6.35999996	35.78295000
6.39999996	31.28147000
6.43999996	26.79525000
6.47999996	17.80755000
6.51999996	17.80755000
6.55999996	13.32133000
6.59999996	4.33362800
6.63999996	-0.15259250
6.67999996	-4.63881300
6.71999996	-9.12503300
6.75999996	-13.62651000
6.79999996	-18.11273000
6.83999996	-22.59896000
6.87999996	-27.10044000
6.91999996	-31.58666000
6.95999996	-36.08813000
6.99999996	-36.08813000
7.03999996	-40.57436000
7.07999996	-40.57436000
7.11999996	-45.06058000
7.15999996	-45.06058000
7.19999996	-49.56206000
7.23999996	-54.04828000
7.27999996	-54.04828000
7.31999996	-49.56206000
7.35999996	-54.04828000
7.39999996	-49.56206000
7.43999995	-45.06058000
7.47999995	-45.06058000
7.51999995	-45.06058000
7.55999995	-40.57436000
7.59999995	-36.08813000
7.63999995	-36.08813000
7.67999995	-36.08813000
7.71999995	-31.58666000
7.75999995	-22.59896000
7.79999995	-18.11273000
7.83999995	-13.62651000
7.87999995	-9.12503300
7.91999995	-4.63881300
7.95999995	-0.15259250
7.99999995	4.33362800
8.03999995	8.81984900
8.07999995	13.32133000
8.11999995	17.80755000
8.15999995	22.29377000
8.19999995	26.79525000
8.23999995	31.28147000
8.27999995	31.28147000
8.31999995	35.78295000
8.35999995	40.26917000
8.39999995	40.26917000
8.43999995	44.75539000
8.47999995	44.75539000
8.51999995	49.25687000
8.55999995	49.25687000
8.59999995	49.25687000
8.63999995	49.25687000
8.67999995	49.25687000
8.71999995	44.75539000
8.75999995	44.75539000
8.79999995	44.75539000
8.83999995	44.75539000
8.87999995	40.26917000
8.91999995	35.78295000
8.95999995	35.78295000
8.99999995	35.78295000
9.03999995	31.28147000
9.07999994	26.79525000
9.11999994	22.29377000
9.15999994	17.80755000
9.19999994	13.32133000
9.23999994	8.81984900
9.27999994	-0.15259250
9.31999994	-0.15259250
9.35999994	-4.63881300
9.39999994	-9.12503300
9.43999994	-18.11273000
9.47999994	-18.11273000
9.51999994	-22.59896000
9.55999994	-27.10044000
9.59999994	-31.58666000
9.63999994	-36.08813000
9.67999994	-36.08813000
9.71999994	-40.57436000
9.75999994	-40.57436000
9.79999994	-40.57436000
9.83999994	-45.06058000
9.87999994	-45.06058000
9.91999994	-45.06058000
9.95999994	-45.06058000
9.99999994	-49.56206000
10.03999994	-45.06058000
10.07999994	-45.06058000
10.11999994	-45.06058000
10.15999994	-40.57436000
10.19999994	-40.57436000
10.23999994	-36.08813000
10.27999994	-36.08813000
10.31999994	-36.08813000
10.35999994	-31.58666000
10.39999994	-27.10044000
10.43999994	-22.59896000
10.47999994	-18.11273000
10.51999994	-13.62651000
10.55999994	-13.62651000
10.59999994	-9.12503300
10.63999994	-4.63881300
10.67999994	-0.15259250
10.71999993	4.33362800
10.75999993	8.81984900
10.79999993	13.32133000
10.83999993	17.80755000
10.87999993	22.29377000
10.91999993	26.79525000
10.95999993	31.28147000
10.99999993	31.28147000
11.03999993	35.78295000
11.07999993	35.78295000
11.11999993	35.78295000
11.15999993	35.78295000
11.19999993	40.26917000
11.23999993	40.26917000
11.27999993	40.26917000
11.31999993	40.26917000
11.35999993	40.26917000
11.39999993	40.26917000
11.43999993	35.78295000
11.47999993	35.78295000
11.51999993	35.78295000
11.55999993	35.78295000
11.59999993	31.28147000
11.63999993	31.28147000
11.67999993	26.79525000
11.71999993	22.29377000
11.75999993	17.80755000
11.79999993	17.80755000
11.83999993	13.32133000
11.87999993	8.81984900
11.91999993	4.33362800
11.95999993	-0.15259250
11.99999993	-4.63881300
12.03999993	-4.63881300
12.07999993	-9.12503300
12.11999993	-18.11273000
12.15999993	-18.11273000
12.19999993	-22.59896000
12.23999993	-27.10044000
12.27999993	-31.58666000
12.31999993	-31.58666000
12.35999992	-36.08813000
12.39999992	-36.08813000
12.43999992	-40.57436000
12.47999992	-40.57436000
12.51999992	-40.57436000
12.55999992	-40.57436000
12.59999992	-40.57436000
12.63999992	-54.04828000
12.67999992	-45.06058000
12.71999992	-36.08813000
12.75999992	-36.08813000
12.79999992	-40.57436000
12.83999992	-40.57436000
12.87999992	-40.57436000
12.91999992	-31.58666000
12.95999992	-31.58666000
12.99999992	-31.58666000
13.03999992	-27.10044000
13.07999992	-22.59896000
13.11999992	-22.59896000
13.15999992	-18.11273000
13.19999992	-13.62651000
13.23999992	-13.62651000
13.27999992	-9.12503300
13.31999992	-4.63881300
13.35999992	-0.15259250
13.39999992	-0.15259250
13.43999992	4.33362800
13.47999992	8.81984900
13.51999992	13.32133000
13.55999992	17.80755000
13.59999992	17.80755000
13.63999992	22.29377000
13.67999992	26.79525000
13.71999992	26.79525000
13.75999992	31.28147000
13.79999992	31.28147000
13.83999992	35.78295000
13.87999992	31.28147000
13.91999992	35.78295000
13.95999992	35.78295000
13.99999991	35.78295000
14.03999991	35.78295000
14.07999991	35.78295000
14.11999991	31.28147000
14.15999991	31.28147000
14.19999991	31.28147000
14.23999991	26.79525000
14.27999991	26.79525000
14.31999991	22.29377000
14.35999991	17.80755000
14.39999991	17.80755000
14.43999991	13.32133000
14.47999991	8.81984900
14.51999991	8.81984900
14.55999991	-0.15259250
14.59999991	-0.15259250
14.63999991	-0.15259250
14.67999991	-4.63881300
14.71999991	-9.12503300
14.75999991	-13.62651000
14.79999991	-13.62651000
14.83999991	-18.11273000
14.87999991	-18.11273000
14.91999991	-27.10044000
14.95999991	-27.10044000
14.99999991	-31.58666000
15.03999991	-36.08813000
15.07999991	-36.08813000
15.11999991	-36.08813000
15.15999991	-36.08813000
15.19999991	-40.57436000
15.23999991	-40.57436000
15.27999991	-40.57436000
15.31999991	-40.57436000
15.35999991	-40.57436000
15.39999991	-40.57436000
15.43999991	-36.08813000
15.47999991	-40.57436000
15.51999991	-36.08813000
15.55999991	-36.08813000
15.59999991	-31.58666000
15.63999990	-31.58666000
15.67999990	-27.10044000
15.71999990	-27.10044000
15.75999990	-22.59896000
15.79999990	-18.11273000
15.83999990	-18.11273000
15.87999990	-18.11273000
15.91999990	-9.12503300
15.95999990	-9.12503300
15.99999990	-4.63881300
16.03999990	-0.15259250
16.07999990	-0.15259250
16.11999990	4.33362800
16.15999990	8.81984900
16.19999990	8.81984900
16.23999990	13.32133000
16.27999990	17.80755000
16.31999990	17.80755000
16.35999990	22.29377000
16.39999990	22.29377000
16.43999990	26.79525000
16.47999990	26.79525000
16.51999990	26.79525000
16.55999990	31.28147000
16.59999990	31.28147000
16.63999990	31.28147000
16.67999990	31.28147000
16.71999990	31.28147000
16.75999990	31.28147000
16.79999990	26.79525000
16.83999990	26.79525000
16.87999990	22.29377000
16.91999990	17.80755000
16.95999990	17.80755000
16.99999990	17.80755000
17.03999990	17.80755000
17.07999990	13.32133000
17.11999990	8.81984900
17.15999990	8.81984900
17.19999990	4.33362800
17.23999990	-0.15259250
17.27999989	-0.15259250
17.31999989	-4.63881300
17.35999989	-4.63881300
17.39999989	-9.12503300
17.43999989	-13.62651000
17.47999989	-18.11273000
17.51999989	-22.59896000
17.55999989	-22.59896000
17.59999989	-22.59896000
17.63999989	-27.10044000
17.67999989	-27.10044000
17.71999989	-31.58666000
17.75999989	-31.58666000
17.79999989	-36.08813000
17.83999989	-36.08813000
17.87999989	-36.08813000
17.91999989	-36.08813000
17.95999989	-36.08813000
17.99999989	-36.08813000
18.03999989	-36.08813000
18.07999989	-36.08813000
18.11999989	-36.08813000
18.15999989	-36.08813000
18.19999989	-36.08813000
18.23999989	-31.58666000
18.27999989	-31.58666000
18.31999989	-31.58666000
18.35999989	-22.59896000
18.39999989	-22.59896000
18.43999989	-22.59896000
18.47999989	-18.11273000
18.51999989	-18.11273000
18.55999989	-13.62651000
18.59999989	-13.62651000
18.63999989	-9.12503300
18.67999989	-4.63881300
18.71999989	-4.63881300
18.75999989	-0.15259250
18.79999989	4.33362800
18.83999989	8.81984900
18.87999989	8.81984900
18.91999989	13.32133000
18.95999988	13.32133000
18.99999988	17.80755000
19.03999988	17.80755000
19.07999988	17.80755000
19.11999988	17.80755000
19.15999988	22.29377000
19.19999988	22.29377000
19.23999988	22.29377000
19.27999988	26.79525000
19.31999988	26.79525000
19.35999988	26.79525000
19.39999988	22.29377000
19.43999988	22.29377000
19.47999988	22.29377000
19.51999988	22.29377000
19.55999988	17.80755000
19.59999988	17.80755000
19.63999988	17.80755000
19.67999988	13.32133000
19.71999988	13.32133000
19.75999988	8.81984900
19.79999988	8.81984900
19.83999988	4.33362800
19.87999988	4.33362800
19.91999988	-0.15259250
19.95999988	-0.15259250
19.99999988	-4.63881300
20.03999988	-4.63881300
20.07999988	-9.12503300
20.11999988	-13.62651000
20.15999988	-18.11273000
20.19999988	-18.11273000
20.23999988	-22.59896000
20.27999988	-22.59896000
20.31999988	-27.10044000
20.35999988	-27.10044000
20.39999988	-27.10044000
20.43999988	-31.58666000
20.47999988	-31.58666000
20.51999988	-31.58666000
20.55999988	-36.08813000
20.59999987	-36.08813000
20.63999987	-36.08813000
20.67999987	-36.08813000
20.71999987	-36.08813000
20.75999987	-31.58666000
20.79999987	-31.58666000
20.83999987	-31.58666000
20.87999987	-31.58666000
20.91999987	-31.58666000
20.95999987	-27.10044000
20.99999987	-27.10044000
21.03999987	-27.10044000
21.07999987	-22.59896000
21.11999987	-18.11273000
21.15999987	-18.11273000
21.19999987	-18.11273000
21.23999987	-13.62651000
21.27999987	-9.12503300
21.31999987	-4.63881300
21.35999987	-4.63881300
21.39999987	-4.63881300
21.43999987	-0.15259250
21.47999987	-0.15259250
21.51999987	4.33362800
21.55999987	8.81984900
21.59999987	8.81984900
21.63999987	13.32133000
21.67999987	13.32133000
21.71999987	13.32133000
21.75999987	17.80755000
21.79999987	17.80755000
21.83999987	17.80755000
21.87999987	17.80755000
21.91999987	17.80755000
21.95999987	17.80755000
21.99999987	17.80755000
22.03999987	17.80755000
22.07999987	17.80755000
22.11999987	17.80755000
22.15999987	17.80755000
22.19999987	17.80755000
22.23999986	17.80755000
22.27999986	13.32133000
22.31999986	13.32133000
22.35999986	13.32133000
22.39999986	8.81984900
22.43999986	13.32133000
22.47999986	-0.15259250
22.51999986	-0.15259250
22.55999986	4.33362800
22.59999986	-0.15259250
22.63999986	-4.63881300
22.67999986	-9.12503300
22.71999986	-9.12503300
22.75999986	-9.12503300
22.79999986	-13.62651000
22.83999986	-13.62651000
22.87999986	-18.11273000
22.91999986	-18.11273000
22.95999986	-22.59896000
22.99999986	-22.59896000
23.03999986	-27.10044000
23.07999986	-27.10044000
23.11999986	-31.58666000
23.15999986	-31.58666000
23.19999986	-31.58666000
23.23999986	-31.58666000
23.27999986	-31.58666000
23.31999986	-36.08813000
23.35999986	-31.58666000
23.39999986	-31.58666000
23.43999986	-31.58666000
23.47999986	-31.58666000
23.51999986	-31.58666000
23.55999986	-31.58666000
23.59999986	-27.10044000
23.63999986	-27.10044000
23.67999986	-22.59896000
23.71999986	-22.59896000
23.75999986	-22.59896000
23.79999986	-18.11273000
23.83999986	-18.11273000
23.87999985	-18.11273000
23.91999985	-13.62651000
23.95999985	-9.12503300
23.99999985	-4.63881300
24.03999985	-4.63881300
24.07999985	-4.63881300
24.11999985	-0.15259250
24.15999985	-0.15259250
24.19999985	-0.15259250
24.23999985	4.33362800
24.27999985	8.81984900
24.31999985	8.81984900
24.35999985	8.81984900
24.39999985	8.81984900
24.43999985	13.32133000
24.47999985	13.32133000
24.51999985	17.80755000
24.55999985	17.80755000
24.59999985	17.80755000
24.63999985	17.80755000
24.67999985	17.80755000
24.71999985	17.80755000
24.75999985	17.80755000
24.79999985	17.80755000
24.83999985	13.32133000
24.87999985	13.32133000
24.91999985	13.32133000
24.95999985	13.32133000
24.99999985	8.81984900
25.03999985	8.81984900
25.07999985	8.81984900
25.11999985	4.33362800
25.15999985	4.33362800
25.19999985	-0.15259250
25.23999985	-0.15259250
25.27999985	-0.15259250
25.31999985	-4.63881300
25.35999985	-4.63881300
25.39999985	-9.12503300
25.43999985	-9.12503300
25.47999985	-13.62651000
25.51999984	-13.62651000
25.55999984	-9.12503300
25.59999984	4.33362800
25.63999984	13.32133000
25.67999984	8.81984900
25.71999984	-13.62651000
25.75999984	-22.59896000
25.79999984	-31.58666000
25.83999984	-49.56206000
25.87999984	-72.02368000
25.91999984	-81.01138000
25.95999984	-76.50990000
25.99999984	-54.04828000
26.03999984	-40.57436000
26.07999984	-36.08813000
26.11999984	-27.10044000
26.15999984	-18.11273000
26.19999984	-4.63881300
26.23999984	-4.63881300
26.27999984	-13.62651000
26.31999984	-18.11273000
26.35999984	-9.12503300
26.39999984	-4.63881300
26.43999984	-4.63881300
26.47999984	-9.12503300
26.51999984	-9.12503300
26.55999984	-9.12503300
26.59999984	-4.63881300
26.63999984	-4.63881300
26.67999984	-4.63881300
26.71999984	-4.63881300
26.75999984	-4.63881300
26.79999984	-4.63881300
26.83999984	-4.63881300
26.87999984	-9.12503300
26.91999984	-13.62651000
26.95999984	-13.62651000
26.99999984	-4.63881300
27.03999984	-0.15259250
27.07999984	4.33362800
27.11999984	8.81984900
27.15999983	17.80755000
27.19999983	26.79525000
27.23999983	26.79525000
27.27999983	26.79525000
27.31999983	22.29377000
27.35999983	13.32133000
27.39999983	13.32133000
27.43999983	13.32133000
27.47999983	8.81984900
27.51999983	8.81984900
27.55999983	13.32133000
27.59999983	17.80755000
27.63999983	26.79525000
27.67999983	31.28147000
27.71999983	31.28147000
27.75999983	26.79525000
27.79999983	13.32133000
27.83999983	-4.63881300
27.87999983	-18.11273000
27.91999983	-31.58666000
27.95999983	-45.06058000
27.99999983	-54.04828000
28.03999983	-45.06058000
28.07999983	-36.08813000
28.11999983	-22.59896000
28.15999983	-13.62651000
28.19999983	-9.12503300
28.23999983	-4.63881300
28.27999983	-0.15259250
28.31999983	-0.15259250
28.35999983	-4.63881300
28.39999983	-9.12503300
28.43999983	-9.12503300
28.47999983	-13.62651000
28.51999983	-18.11273000
28.55999983	-18.11273000
28.59999983	-22.59896000
28.63999983	-22.59896000
28.67999983	-22.59896000
28.71999983	-22.59896000
28.75999983	-22.59896000
28.79999982	-27.10044000
28.83999982	-27.10044000
28.87999982	-31.58666000
28.91999982	-31.58666000
28.95999982	-36.08813000
28.99999982	-36.08813000
29.03999982	-36.08813000
29.07999982	-31.58666000
29.11999982	-22.59896000
29.15999982	-18.11273000
29.19999982	-13.62651000
29.23999982	-4.63881300
29.27999982	-0.15259250
29.31999982	4.33362800
29.35999982	-0.15259250
29.39999982	-0.15259250
29.43999982	-0.15259250
29.47999982	-4.63881300
29.51999982	-0.15259250
29.55999982	-0.15259250
29.59999982	-0.15259250
29.63999982	4.33362800
29.67999982	8.81984900
29.71999982	8.81984900
29.75999982	8.81984900
29.79999982	8.81984900
29.83999982	4.33362800
29.87999982	-0.15259250
29.91999982	-0.15259250
29.95999982	-0.15259250
29.99999982	4.33362800
30.03999982	4.33362800
30.07999982	8.81984900
30.11999982	8.81984900
30.15999982	13.32133000
30.19999982	17.80755000
30.23999982	13.32133000
30.27999982	13.32133000
30.31999982	13.32133000
30.35999982	13.32133000
30.39999982	8.81984900
30.43999982	8.81984900
30.47999981	8.81984900
30.51999981	4.33362800
30.55999981	-0.15259250
30.59999981	-4.63881300
30.63999981	-4.63881300
30.67999981	-4.63881300
30.71999981	-9.12503300
30.75999981	-9.12503300
30.79999981	-13.62651000
30.83999981	-13.62651000
30.87999981	-18.11273000
30.91999981	-18.11273000
30.95999981	-22.59896000
30.99999981	-22.59896000
31.03999981	-22.59896000
31.07999981	-22.59896000
31.11999981	-22.59896000
31.15999981	-22.59896000
31.19999981	-18.11273000
31.23999981	-18.11273000
31.27999981	-18.11273000
31.31999981	-18.11273000
31.35999981	-22.59896000
31.39999981	-22.59896000
31.43999981	-22.59896000
31.47999981	-22.59896000
31.51999981	-22.59896000
31.55999981	-22.59896000
31.59999981	-22.59896000
31.63999981	-22.59896000
31.67999981	-22.59896000
31.71999981	-18.11273000
31.75999981	-18.11273000
31.79999981	-18.11273000
31.83999981	-18.11273000
31.87999981	-18.11273000
