Time,Channel A
(us),(mV)

0.00000000,179.52510000
0.04000000,188.51280000
0.08000000,201.98670000
0.12000000,210.97440000
0.16000000,206.47300000
0.20000000,197.50050000
0.24000000,197.50050000
0.28000000,197.50050000
0.32000000,188.51280000
0.36000000,179.52510000
0.40000000,166.05120000
0.44000000,161.56500000
0.48000000,152.57730000
0.52000000,143.58960000
0.56000000,139.10340000
0.60000000,125.61420000
0.64000000,112.14030000
0.68000000,103.15250000
0.72000000,85.19241000
0.76000000,62.73079000
0.80000000,44.75539000
0.83999999,22.29377000
0.87999999,4.33362800
0.91999999,-18.11273000
0.95999999,-36.08813000
0.99999999,-54.04828000
1.03999999,-67.52220000
1.07999999,-81.01138000
1.11999999,-98.97152000
1.15999999,-112.44540000
1.19999999,-130.42080000
1.23999999,-143.89480000
1.27999999,-157.36870000
1.31999999,-170.84260000
1.35999999,-179.83030000
1.39999999,-184.33180000
1.43999999,-188.81800000
1.47999999,-188.81800000
1.51999999,-188.81800000
1.55999999,-188.81800000
1.59999999,-184.33180000
1.63999999,-179.83030000
1.67999999,-175.34410000
1.71999999,-170.84260000
1.75999999,-161.87020000
1.79999999,-152.88250000
1.83999999,-143.89480000
1.87999999,-130.42080000
1.91999999,-116.94690000
1.95999999,-107.95920000
1.99999999,-89.98383000
2.03999999,-72.02368000
2.07999999,-58.54976000
2.11999999,-40.57436000
2.15999999,-22.59896000
2.19999999,-4.63881300
2.23999999,8.81984900
2.27999999,31.28147000
2.31999999,44.75539000
2.35999999,58.24457000
2.39999999,76.20471000
2.43999999,89.67863000
2.47999998,107.65400000
2.51999998,125.61420000
2.55999998,139.10340000
2.59999998,152.57730000
2.63999998,161.56500000
2.67999998,175.03890000
2.71999998,179.52510000
2.75999998,188.51280000
2.79999998,188.51280000
2.83999998,192.99900000
2.87999998,192.99900000
2.91999998,188.51280000
2.95999998,188.51280000
2.99999998,188.51280000
3.03999998,179.52510000
3.07999998,175.03890000
3.11999998,161.56500000
3.15999998,152.57730000
3.19999998,139.10340000
3.23999998,130.11560000
3.27999998,116.64170000
3.31999998,98.66634000
3.35999998,80.70620000
3.39999998,67.21701000
3.43999998,49.25687000
3.47999998,35.78295000
3.51999998,17.80755000
3.55999998,-0.15259250
3.59999998,-18.11273000
3.63999998,-31.58666000
3.67999998,-49.56206000
3.71999998,-63.03598000
3.75999998,-81.01138000
3.79999998,-94.48530000
3.83999998,-107.95920000
3.87999998,-125.91940000
3.91999998,-134.90710000
3.95999998,-148.38100000
3.99999998,-157.36870000
4.03999998,-161.87020000
4.07999998,-170.84260000
4.11999997,-175.34410000
4.15999997,-179.83030000
4.19999997,-179.83030000
4.23999997,-179.83030000
4.27999997,-179.83030000
4.31999997,-175.34410000
4.35999997,-170.84260000
4.39999997,-166.35640000
4.43999997,-157.36870000
4.47999997,-148.38100000
4.51999997,-139.40860000
4.55999997,-125.91940000
4.59999997,-112.44540000
4.63999997,-94.48530000
4.67999997,-85.49760000
4.71999997,-67.52220000
4.75999997,-54.04828000
4.79999997,-31.58666000
4.83999997,-18.11273000
4.87999997,-0.15259250
4.91999997,13.32133000
4.95999997,31.28147000
4.99999997,44.75539000
5.03999997,62.73079000
5.07999997,76.20471000
5.11999997,89.67863000
5.15999997,107.65400000
5.19999997,121.12800000
5.23999997,130.11560000
5.27999997,143.58960000
5.31999997,152.57730000
5.35999997,161.56500000
5.39999997,170.53740000
5.43999997,175.03890000
5.47999997,179.52510000
5.51999997,184.02660000
5.55999997,179.52510000
5.59999997,184.02660000
5.63999997,179.52510000
5.67999997,179.52510000
5.71999997,170.53740000
5.75999996,161.56500000
5.79999996,157.06350000
5.83999996,143.58960000
5.87999996,134.60190000
5.91999996,121.12800000
5.95999996,107.65400000
5.99999996,89.67863000
6.03999996,76.20471000
6.07999996,62.73079000
6.11999996,44.75539000
6.15999996,31.28147000
6.19999996,13.32133000
6.23999996,-4.63881300
6.27999996,-18.11273000
6.31999996,-36.08813000
6.35999996,-49.56206000
6.39999996,-63.03598000
6.43999996,-81.01138000
6.47999996,-94.48530000
6.51999996,-107.95920000
6.55999996,-116.94690000
6.59999996,-130.42080000
6.63999996,-143.89480000
6.67999996,-148.38100000
6.71999996,-152.88250000
6.75999996,-161.87020000
6.79999996,-166.35640000
6.83999996,-170.84260000
6.87999996,-170.84260000
6.91999996,-170.84260000
6.95999996,-170.84260000
6.99999996,-166.35640000
7.03999996,-161.87020000
7.07999996,-157.36870000
7.11999996,-148.38100000
7.15999996,-143.89480000
7.19999996,-130.42080000
7.23999996,-116.94690000
7.27999996,-107.95920000
7.31999996,-94.48530000
7.35999996,-76.50990000
7.39999996,-63.03598000
7.43999995,-45.06058000
7.47999995,-31.58666000
7.51999995,-18.11273000
7.55999995,-0.15259250
7.59999995,17.80755000
7.63999995,31.28147000
7.67999995,49.25687000
7.71999995,62.73079000
7.75999995,76.20471000
7.79999995,89.67863000
7.83999995,103.15250000
7.87999995,116.64170000
7.91999995,125.61420000
7.95999995,139.10340000
7.99999995,143.58960000
8.03999995,157.06350000
8.07999995,161.56500000
8.11999995,166.05120000
8.15999995,170.53740000
8.19999995,175.03890000
8.23999995,175.03890000
8.27999995,175.03890000
8.31999995,170.53740000
8.35999995,166.05120000
8.39999995,161.56500000
8.43999995,157.06350000
8.47999995,143.58960000
8.51999995,139.10340000
8.55999995,125.61420000
8.59999995,112.14030000
8.63999995,98.66634000
8.67999995,85.19241000
8.71999995,71.71850000
8.75999995,58.24457000
8.79999995,40.26917000
8.83999995,26.79525000
8.87999995,13.32133000
8.91999995,-4.63881300
8.95999995,-18.11273000
8.99999995,-36.08813000
9.03999995,-54.04828000
9.07999994,-63.03598000
9.11999994,-81.01138000
9.15999994,-89.98383000
9.19999994,-107.95920000
9.23999994,-116.94690000
9.27999994,-125.91940000
9.31999994,-134.90710000
9.35999994,-143.89480000
9.39999994,-152.88250000
9.43999994,-157.36870000
9.47999994,-161.87020000
9.51999994,-161.87020000
9.55999994,-161.87020000
9.59999994,-161.87020000
9.63999994,-161.87020000
9.67999994,-157.36870000
9.71999994,-152.88250000
9.75999994,-143.89480000
9.79999994,-139.40860000
9.83999994,-130.42080000
9.87999994,-125.91940000
9.91999994,-107.95920000
9.95999994,-94.48530000
9.99999994,-85.49760000
10.03999994,-72.02368000
10.07999994,-58.54976000
10.11999994,-40.57436000
10.15999994,-27.10044000
10.19999994,-13.62651000
10.23999994,4.33362800
10.27999994,17.80755000
10.31999994,35.78295000
10.35999994,49.25687000
10.39999994,62.73079000
10.43999994,76.20471000
10.47999994,89.67863000
10.51999994,103.15250000
10.55999994,112.14030000
10.59999994,125.61420000
10.63999994,134.60190000
10.67999994,143.58960000
10.71999993,148.07580000
10.75999993,157.06350000
10.79999993,161.56500000
10.83999993,161.56500000
10.87999993,166.05120000
10.91999993,166.05120000
10.95999993,161.56500000
10.99999993,161.56500000
11.03999993,157.06350000
11.07999993,152.57730000
11.11999993,148.07580000
11.15999993,139.10340000
11.19999993,125.61420000
11.23999993,116.64170000
11.27999993,107.65400000
11.31999993,94.18011000
11.35999993,80.70620000
11.39999993,67.21701000
11.43999993,53.74309000
11.47999993,35.78295000
11.51999993,22.29377000
11.55999993,8.81984900
11.59999993,-4.63881300
11.63999993,-22.59896000
11.67999993,-36.08813000
11.71999993,-49.56206000
11.75999993,-63.03598000
11.79999993,-76.50990000
11.83999993,-89.98383000
11.87999993,-103.45770000
11.91999993,-112.44540000
11.95999993,-125.91940000
11.99999993,-130.42080000
12.03999993,-139.40860000
12.07999993,-143.89480000
12.11999993,-148.38100000
12.15999993,-152.88250000
12.19999993,-157.36870000
12.23999993,-157.36870000
12.27999993,-152.88250000
12.31999993,-152.88250000
12.35999992,-152.88250000
12.39999992,-143.89480000
12.43999992,-139.40860000
12.47999992,-130.42080000
12.51999992,-121.43310000
12.55999992,-112.44540000
12.59999992,-103.45770000
12.63999992,-89.98383000
12.67999992,-76.50990000
12.71999992,-67.52220000
12.75999992,-54.04828000
12.79999992,-36.08813000
12.83999992,-22.59896000
12.87999992,-9.12503300
12.91999992,4.33362800
12.95999992,17.80755000
12.99999992,31.28147000
13.03999992,49.25687000
13.07999992,62.73079000
13.11999992,71.71850000
13.15999992,89.67863000
13.19999992,98.66634000
13.23999992,112.14030000
13.27999992,121.12800000
13.31999992,130.11560000
13.35999992,139.10340000
13.39999992,143.58960000
13.43999992,148.07580000
13.47999992,152.57730000
13.51999992,152.57730000
13.55999992,161.56500000
13.59999992,157.06350000
13.63999992,157.06350000
13.67999992,152.57730000
13.71999992,148.07580000
13.75999992,143.58960000
13.79999992,139.10340000
13.83999992,130.11560000
13.87999992,121.12800000
13.91999992,112.14030000
13.95999992,98.66634000
13.99999991,85.19241000
14.03999991,76.20471000
14.07999991,58.24457000
14.11999991,44.75539000
14.15999991,35.78295000
14.19999991,17.80755000
14.23999991,4.33362800
14.27999991,-9.12503300
14.31999991,-22.59896000
14.35999991,-36.08813000
14.39999991,-49.56206000
14.43999991,-63.03598000
14.47999991,-72.02368000
14.51999991,-89.98383000
14.55999991,-98.97152000
14.59999991,-107.95920000
14.63999991,-116.94690000
14.67999991,-125.91940000
14.71999991,-130.42080000
14.75999991,-139.40860000
14.79999991,-143.89480000
14.83999991,-143.89480000
14.87999991,-148.38100000
14.91999991,-148.38100000
14.95999991,-148.38100000
14.99999991,-143.89480000
15.03999991,-143.89480000
15.07999991,-134.90710000
15.11999991,-130.42080000
15.15999991,-125.91940000
15.19999991,-112.44540000
15.23999991,-107.95920000
15.27999991,-94.48530000
15.31999991,-85.49760000
15.35999991,-72.02368000
15.39999991,-63.03598000
15.43999991,-45.06058000
15.47999991,-36.08813000
15.51999991,-18.11273000
15.55999991,-9.12503300
15.59999991,4.33362800
15.63999990,17.80755000
15.67999990,35.78295000
15.71999990,49.25687000
15.75999990,62.73079000
15.79999990,71.71850000
15.83999990,85.19241000
15.87999990,94.18011000
15.91999990,107.65400000
15.95999990,116.64170000
15.99999990,125.61420000
16.03999990,134.60190000
16.07999990,139.10340000
16.11999990,143.58960000
16.15999990,143.58960000
16.19999990,148.07580000
16.23999990,148.07580000
16.27999990,148.07580000
16.31999990,148.07580000
16.35999990,143.58960000
16.39999990,139.10340000
16.43999990,134.60190000
16.47999990,130.11560000
16.51999990,121.12800000
16.55999990,112.14030000
16.59999990,103.15250000
16.63999990,89.67863000
16.67999990,80.70620000
16.71999990,67.21701000
16.75999990,53.74309000
16.79999990,44.75539000
16.83999990,31.28147000
16.87999990,17.80755000
16.91999990,4.33362800
16.95999990,-9.12503300
16.99999990,-22.59896000
17.03999990,-36.08813000
17.07999990,-49.56206000
17.11999990,-58.54976000
17.15999990,-72.02368000
17.19999990,-81.01138000
17.23999990,-94.48530000
17.27999989,-107.95920000
17.31999989,-112.44540000
17.35999989,-121.43310000
17.39999989,-125.91940000
17.43999989,-130.42080000
17.47999989,-134.90710000
17.51999989,-139.40860000
17.55999989,-143.89480000
17.59999989,-143.89480000
17.63999989,-139.40860000
17.67999989,-139.40860000
17.71999989,-134.90710000
17.75999989,-130.42080000
17.79999989,-125.91940000
17.83999989,-116.94690000
17.87999989,-107.95920000
17.91999989,-98.97152000
17.95999989,-89.98383000
17.99999989,-76.50990000
18.03999989,-67.52220000
18.07999989,-54.04828000
18.11999989,-40.57436000
18.15999989,-27.10044000
18.19999989,-13.62651000
18.23999989,-4.63881300
18.27999989,8.81984900
18.31999989,17.80755000
18.35999989,35.78295000
18.39999989,49.25687000
18.43999989,58.24457000
18.47999989,71.71850000
18.51999989,80.70620000
18.55999989,89.67863000
18.59999989,107.65400000
18.63999989,112.14030000
18.67999989,121.12800000
18.71999989,125.61420000
18.75999989,134.60190000
18.79999989,139.10340000
18.83999989,139.10340000
18.87999989,143.58960000
18.91999989,143.58960000
18.95999988,143.58960000
18.99999988,143.58960000
19.03999988,139.10340000
19.07999988,134.60190000
19.11999988,125.61420000
19.15999988,121.12800000
19.19999988,112.14030000
19.23999988,107.65400000
19.27999988,94.18011000
19.31999988,85.19241000
19.35999988,76.20471000
19.39999988,62.73079000
19.43999988,53.74309000
19.47999988,35.78295000
19.51999988,26.79525000
19.55999988,13.32133000
19.59999988,-0.15259250
19.63999988,-9.12503300
19.67999988,-22.59896000
19.71999988,-40.57436000
19.75999988,-49.56206000
19.79999988,-58.54976000
19.83999988,-72.02368000
19.87999988,-81.01138000
19.91999988,-89.98383000
19.95999988,-98.97152000
19.99999988,-107.95920000
20.03999988,-116.94690000
20.07999988,-125.91940000
20.11999988,-125.91940000
20.15999988,-130.42080000
20.19999988,-134.90710000
20.23999988,-134.90710000
20.27999988,-134.90710000
20.31999988,-134.90710000
20.35999988,-130.42080000
20.39999988,-125.91940000
20.43999988,-125.91940000
20.47999988,-116.94690000
20.51999988,-107.95920000
20.55999988,-103.45770000
20.59999987,-94.48530000
20.63999987,-85.49760000
20.67999987,-72.02368000
20.71999987,-58.54976000
20.75999987,-54.04828000
20.79999987,-36.08813000
20.83999987,-22.59896000
20.87999987,-13.62651000
20.91999987,-0.15259250
20.95999987,13.32133000
20.99999987,22.29377000
21.03999987,35.78295000
21.07999987,49.25687000
21.11999987,58.24457000
21.15999987,71.71850000
21.19999987,80.70620000
21.23999987,89.67863000
21.27999987,103.15250000
21.31999987,107.65400000
21.35999987,116.64170000
21.39999987,121.12800000
21.43999987,125.61420000
21.47999987,130.11560000
21.51999987,134.60190000
21.55999987,134.60190000
21.59999987,134.60190000
21.63999987,134.60190000
21.67999987,134.60190000
21.71999987,130.11560000
21.75999987,125.61420000
21.79999987,121.12800000
21.83999987,116.64170000
21.87999987,107.65400000
21.91999987,98.66634000
21.95999987,89.67863000
21.99999987,80.70620000
22.03999987,71.71850000
22.07999987,58.24457000
22.11999987,44.75539000
22.15999987,35.78295000
22.19999987,22.29377000
22.23999986,13.32133000
22.27999986,-0.15259250
22.31999986,-13.62651000
22.35999986,-22.59896000
22.39999986,-36.08813000
22.43999986,-49.56206000
22.47999986,-58.54976000
22.51999986,-72.02368000
22.55999986,-76.50990000
22.59999986,-89.98383000
22.63999986,-107.95920000
22.67999986,-130.42080000
22.71999986,-148.38100000
22.75999986,-143.89480000
22.79999986,-125.91940000
22.83999986,-125.91940000
22.87999986,-116.94690000
22.91999986,-98.97152000
22.95999986,-76.50990000
22.99999986,-67.52220000
23.03999986,-81.01138000
23.07999986,-98.97152000
23.11999986,-107.95920000
23.15999986,-107.95920000
23.19999986,-107.95920000
23.23999986,-112.44540000
23.27999986,-112.44540000
23.31999986,-98.97152000
23.35999986,-76.50990000
23.39999986,-58.54976000
23.43999986,-54.04828000
23.47999986,-45.06058000
23.51999986,-36.08813000
23.55999986,-18.11273000
23.59999986,-4.63881300
23.63999986,-0.15259250
23.67999986,13.32133000
23.71999986,31.28147000
23.75999986,44.75539000
23.79999986,58.24457000
23.83999986,71.71850000
23.87999985,85.19241000
23.91999985,98.66634000
23.95999985,112.14030000
23.99999985,125.61420000
24.03999985,130.11560000
24.07999985,130.11560000
24.11999985,130.11560000
24.15999985,130.11560000
24.19999985,125.61420000
24.23999985,121.12800000
24.27999985,116.64170000
24.31999985,116.64170000
24.35999985,121.12800000
24.39999985,121.12800000
24.43999985,116.64170000
24.47999985,112.14030000
24.51999985,107.65400000
24.55999985,103.15250000
24.59999985,89.67863000
24.63999985,80.70620000
24.67999985,71.71850000
24.71999985,62.73079000
24.75999985,53.74309000
24.79999985,44.75539000
24.83999985,35.78295000
24.87999985,31.28147000
24.91999985,17.80755000
24.95999985,8.81984900
24.99999985,-4.63881300
25.03999985,-18.11273000
25.07999985,-31.58666000
25.11999985,-45.06058000
25.15999985,-58.54976000
25.19999985,-72.02368000
25.23999985,-81.01138000
25.27999985,-89.98383000
25.31999985,-98.97152000
25.35999985,-107.95920000
25.39999985,-112.44540000
25.43999985,-116.94690000
25.47999985,-121.43310000
25.51999984,-125.91940000
25.55999984,-121.43310000
25.59999984,-125.91940000
25.63999984,-121.43310000
25.67999984,-116.94690000
25.71999984,-116.94690000
25.75999984,-112.44540000
25.79999984,-107.95920000
25.83999984,-98.97152000
25.87999984,-94.48530000
25.91999984,-85.49760000
25.95999984,-72.02368000
25.99999984,-63.03598000
26.03999984,-58.54976000
26.07999984,-49.56206000
26.11999984,-40.57436000
26.15999984,-31.58666000
26.19999984,-22.59896000
26.23999984,-13.62651000
26.27999984,-4.63881300
26.31999984,8.81984900
26.35999984,22.29377000
26.39999984,35.78295000
26.43999984,44.75539000
26.47999984,58.24457000
26.51999984,67.21701000
26.55999984,76.20471000
26.59999984,85.19241000
26.63999984,94.18011000
26.67999984,103.15250000
26.71999984,107.65400000
26.75999984,116.64170000
26.79999984,121.12800000
26.83999984,125.61420000
26.87999984,125.61420000
26.91999984,130.11560000
26.95999984,125.61420000
26.99999984,125.61420000
27.03999984,121.12800000
27.07999984,121.12800000
27.11999984,112.14030000
27.15999983,107.65400000
27.19999983,98.66634000
27.23999983,89.67863000
27.27999983,85.19241000
27.31999983,76.20471000
27.35999983,71.71850000
27.39999983,71.71850000
27.43999983,80.70620000
27.47999983,89.67863000
27.51999983,107.65400000
27.55999983,125.61420000
27.59999983,143.58960000
27.63999983,161.56500000
27.67999983,175.03890000
27.71999983,179.52510000
27.75999983,175.03890000
27.79999983,161.56500000
27.83999983,139.10340000
27.87999983,103.15250000
27.91999983,58.24457000
27.95999983,8.81984900
27.99999983,-54.04828000
28.03999983,-107.95920000
28.07999983,-166.35640000
28.11999983,-220.26730000
28.15999983,-265.19060000
28.19999983,-296.62460000
28.23999983,-323.58770000
28.27999983,-337.06160000
28.31999983,-341.54790000
28.35999983,-328.07390000
28.39999983,-314.60000000
28.43999983,-287.65220000
28.47999983,-260.68910000
28.51999983,-224.75350000
28.55999983,-193.30420000
28.59999983,-161.87020000
28.63999983,-134.90710000
28.67999983,-107.95920000
28.71999983,-89.98383000
28.75999983,-81.01138000
28.79999982,-72.02368000
28.83999982,-72.02368000
28.87999982,-76.50990000
28.91999982,-85.49760000
28.95999982,-94.48530000
28.99999982,-103.45770000
29.03999982,-107.95920000
29.07999982,-112.44540000
29.11999982,-107.95920000
29.15999982,-103.45770000
29.19999982,-85.49760000
29.23999982,-58.54976000
29.27999982,-27.10044000
29.31999982,8.81984900
29.35999982,53.74309000
29.39999982,98.66634000
29.43999982,148.07580000
29.47999982,197.50050000
29.51999982,246.91000000
29.55999982,291.83320000
29.59999982,345.74420000
29.63999982,390.65220000
29.67999982,408.62750000
29.71999982,431.08920000
29.75999982,431.08920000
29.79999982,422.10150000
29.83999982,404.14130000
29.87999982,368.20580000
29.91999982,323.28260000
29.95999982,278.35930000
29.99999982,224.44840000
30.03999982,166.05120000
30.07999982,112.14030000
30.11999982,62.73079000
30.15999982,17.80755000
30.19999982,-18.11273000
30.23999982,-40.57436000
30.27999982,-54.04828000
30.31999982,-58.54976000
30.35999982,-58.54976000
30.39999982,-49.56206000
30.43999982,-40.57436000
30.47999981,-31.58666000
30.51999981,-22.59896000
30.55999981,-18.11273000
30.59999981,-18.11273000
30.63999981,-27.10044000
30.67999981,-36.08813000
30.71999981,-63.03598000
30.75999981,-89.98383000
30.79999981,-125.91940000
30.83999981,-166.35640000
30.87999981,-206.77810000
30.91999981,-251.70140000
30.95999981,-287.65220000
30.99999981,-323.58770000
31.03999981,-355.02180000
