Time	Channel A
(us)	(mV)

0.00000000	-161.87020000
0.04000000	-139.40860000
0.08000000	-116.94690000
0.12000000	-103.45770000
0.16000000	-89.98383000
0.20000000	-89.98383000
0.24000000	-98.97152000
0.28000000	-112.44540000
0.32000000	-134.90710000
0.36000000	-161.87020000
0.40000000	-193.30420000
0.44000000	-224.75350000
0.48000000	-256.20290000
0.52000000	-283.15070000
0.56000000	-305.61230000
0.60000000	-314.60000000
0.64000000	-314.60000000
0.68000000	-301.12610000
0.72000000	-278.66450000
0.76000000	-242.72890000
0.80000000	-197.80570000
0.83999999	-139.40860000
0.87999999	-85.49760000
0.91999999	-22.59896000
0.95999999	40.26917000
0.99999999	98.66634000
1.03999999	152.57730000
1.07999999	197.50050000
1.11999999	228.93460000
1.15999999	251.39620000
1.19999999	264.88540000
1.23999999	264.88540000
1.27999999	260.38390000
1.31999999	255.89770000
1.35999999	246.91000000
1.39999999	242.42380000
1.43999999	246.91000000
1.47999999	233.43610000
1.51999999	242.42380000
1.55999999	251.39620000
1.59999999	251.39620000
1.63999999	260.38390000
1.67999999	269.37160000
1.71999999	269.37160000
1.75999999	269.37160000
1.79999999	269.37160000
1.83999999	260.38390000
1.87999999	251.39620000
1.91999999	233.43610000
1.95999999	206.47300000
1.99999999	184.02660000
2.03999999	148.07580000
2.07999999	116.64170000
2.11999999	80.70620000
2.15999999	44.75539000
2.19999999	4.33362800
2.23999999	-36.08813000
2.27999999	-76.50990000
2.31999999	-112.44540000
2.35999999	-143.89480000
2.39999999	-170.84260000
2.43999999	-197.80570000
2.47999998	-224.75350000
2.51999998	-242.72890000
2.55999998	-251.70140000
2.59999998	-256.20290000
2.63999998	-260.68910000
2.67999998	-256.20290000
2.71999998	-256.20290000
2.75999998	-251.70140000
2.79999998	-247.21520000
2.83999998	-242.72890000
2.87999998	-242.72890000
2.91999998	-238.22750000
2.95999998	-242.72890000
2.99999998	-238.22750000
3.03999998	-238.22750000
3.07999998	-238.22750000
3.11999998	-238.22750000
3.15999998	-233.74130000
3.19999998	-224.75350000
3.23999998	-215.76590000
3.27999998	-202.29190000
3.31999998	-179.83030000
3.35999998	-157.36870000
3.39999998	-134.90710000
3.43999998	-98.97152000
3.47999998	-67.52220000
3.51999998	-36.08813000
3.55999998	4.33362800
3.59999998	40.26917000
3.63999998	76.20471000
3.67999998	112.14030000
3.71999998	143.58960000
3.75999998	175.03890000
3.79999998	201.98670000
3.83999998	228.93460000
3.87999998	246.91000000
3.91999998	255.89770000
3.95999998	269.37160000
3.99999998	273.85780000
4.03999998	273.85780000
4.07999998	273.85780000
4.11999997	269.37160000
4.15999997	264.88540000
4.19999997	260.38390000
4.23999997	251.39620000
4.27999997	246.91000000
4.31999997	242.42380000
4.35999997	233.43610000
4.39999997	228.93460000
4.43999997	224.44840000
4.47999997	215.46070000
4.51999997	210.97440000
4.55999997	197.50050000
4.59999997	188.51280000
4.63999997	175.03890000
4.67999997	157.06350000
4.71999997	139.10340000
4.75999997	116.64170000
4.79999997	85.19241000
4.83999997	58.24457000
4.87999997	26.79525000
4.91999997	-4.63881300
4.95999997	-40.57436000
4.99999997	-76.50990000
5.03999997	-107.95920000
5.07999997	-139.40860000
5.11999997	-166.35640000
5.15999997	-193.30420000
5.19999997	-215.76590000
5.23999997	-238.22750000
5.27999997	-251.70140000
5.31999997	-265.19060000
5.35999997	-269.67680000
5.39999997	-274.16300000
5.43999997	-274.16300000
5.47999997	-269.67680000
5.51999997	-269.67680000
5.55999997	-260.68910000
5.59999997	-251.70140000
5.63999997	-247.21520000
5.67999997	-233.74130000
5.71999997	-224.75350000
5.75999996	-215.76590000
5.79999996	-202.29190000
5.83999996	-197.80570000
5.87999996	-184.33180000
5.91999996	-170.84260000
5.95999996	-157.36870000
5.99999996	-143.89480000
6.03999996	-125.91940000
6.07999996	-107.95920000
6.11999996	-85.49760000
6.15999996	-63.03598000
6.19999996	-36.08813000
6.23999996	-9.12503300
6.27999996	17.80755000
6.31999996	53.74309000
6.35999996	80.70620000
6.39999996	112.14030000
6.43999996	143.58960000
6.47999996	170.53740000
6.51999996	192.99900000
6.55999996	215.46070000
6.59999996	233.43610000
6.63999996	251.39620000
6.67999996	264.88540000
6.71999996	269.37160000
6.75999996	278.35930000
6.79999996	282.84560000
6.83999996	278.35930000
6.87999996	269.37160000
6.91999996	264.88540000
6.95999996	255.89770000
6.99999996	246.91000000
7.03999996	233.43610000
7.07999996	224.44840000
7.11999996	210.97440000
7.15999996	197.50050000
7.19999996	188.51280000
7.23999996	175.03890000
7.27999996	148.07580000
7.31999996	139.10340000
7.35999996	134.60190000
7.39999996	112.14030000
7.43999995	85.19241000
7.47999995	67.21701000
7.51999995	44.75539000
7.55999995	22.29377000
7.59999995	-4.63881300
7.63999995	-31.58666000
7.67999995	-58.54976000
7.71999995	-85.49760000
7.75999995	-112.44540000
7.79999995	-139.40860000
7.83999995	-161.87020000
7.87999995	-188.81800000
7.91999995	-211.27960000
7.95999995	-224.75350000
7.99999995	-242.72890000
8.03999995	-256.20290000
8.07999995	-269.67680000
8.11999995	-269.67680000
8.15999995	-269.67680000
8.19999995	-269.67680000
8.23999995	-269.67680000
8.27999995	-256.20290000
8.31999995	-247.21520000
8.35999995	-238.22750000
8.39999995	-224.75350000
8.43999995	-215.76590000
8.47999995	-197.80570000
8.51999995	-179.83030000
8.55999995	-166.35640000
8.59999995	-148.38100000
8.63999995	-121.43310000
8.67999995	-98.97152000
8.71999995	-81.01138000
8.75999995	-63.03598000
8.79999995	-54.04828000
8.83999995	-45.06058000
8.87999995	-36.08813000
8.91999995	-22.59896000
8.95999995	-9.12503300
8.99999995	8.81984900
9.03999995	40.26917000
9.07999994	76.20471000
9.11999994	116.64170000
9.15999994	143.58960000
9.19999994	175.03890000
9.23999994	206.47300000
9.27999994	228.93460000
9.31999994	242.42380000
9.35999994	255.89770000
9.39999994	264.88540000
9.43999994	269.37160000
9.47999994	273.85780000
9.51999994	278.35930000
9.55999994	273.85780000
9.59999994	269.37160000
9.63999994	264.88540000
9.67999994	255.89770000
9.71999994	246.91000000
9.75999994	228.93460000
9.79999994	210.97440000
9.83999994	192.99900000
9.87999994	175.03890000
9.91999994	152.57730000
9.95999994	130.11560000
9.99999994	112.14030000
10.03999994	94.18011000
10.07999994	80.70620000
10.11999994	62.73079000
10.15999994	44.75539000
10.19999994	31.28147000
10.23999994	13.32133000
10.27999994	-4.63881300
10.31999994	-27.10044000
10.35999994	-54.04828000
10.39999994	-76.50990000
10.43999994	-98.97152000
10.47999994	-125.91940000
10.51999994	-148.38100000
10.55999994	-166.35640000
10.59999994	-184.33180000
10.63999994	-202.29190000
10.67999994	-220.26730000
10.71999993	-233.74130000
10.75999993	-242.72890000
10.79999993	-251.70140000
10.83999993	-260.68910000
10.87999993	-265.19060000
10.91999993	-265.19060000
10.95999993	-260.68910000
10.99999993	-251.70140000
11.03999993	-242.72890000
11.07999993	-229.23980000
11.11999993	-215.76590000
11.15999993	-197.80570000
11.19999993	-179.83030000
11.23999993	-161.87020000
11.27999993	-143.89480000
11.31999993	-125.91940000
11.35999993	-103.45770000
11.39999993	-85.49760000
11.43999993	-63.03598000
11.47999993	-45.06058000
11.51999993	-27.10044000
11.55999993	-4.63881300
11.59999993	13.32133000
11.63999993	35.78295000
11.67999993	53.74309000
11.71999993	71.71850000
11.75999993	94.18011000
11.79999993	116.64170000
11.83999993	139.10340000
11.87999993	157.06350000
11.91999993	175.03890000
11.95999993	188.51280000
11.99999993	206.47300000
12.03999993	215.46070000
12.07999993	233.43610000
12.11999993	242.42380000
12.15999993	246.91000000
12.19999993	251.39620000
12.23999993	260.38390000
12.27999993	260.38390000
12.31999993	251.39620000
12.35999992	246.91000000
12.39999992	233.43610000
12.43999992	224.44840000
12.47999992	210.97440000
12.51999992	192.99900000
12.55999992	179.52510000
12.59999992	161.56500000
12.63999992	139.10340000
12.67999992	121.12800000
12.71999992	98.66634000
12.75999992	80.70620000
12.79999992	58.24457000
12.83999992	35.78295000
12.87999992	13.32133000
12.91999992	-4.63881300
12.95999992	-27.10044000
12.99999992	-45.06058000
13.03999992	-67.52220000
13.07999992	-85.49760000
13.11999992	-103.45770000
13.15999992	-121.43310000
13.19999992	-139.40860000
13.23999992	-152.88250000
13.27999992	-170.84260000
13.31999992	-188.81800000
13.35999992	-197.80570000
13.39999992	-215.76590000
13.43999992	-220.26730000
13.47999992	-233.74130000
13.51999992	-238.22750000
13.55999992	-242.72890000
13.59999992	-242.72890000
13.63999992	-238.22750000
13.67999992	-233.74130000
13.71999992	-229.23980000
13.75999992	-220.26730000
13.79999992	-206.77810000
13.83999992	-197.80570000
13.87999992	-179.83030000
13.91999992	-161.87020000
13.95999992	-143.89480000
13.99999991	-125.91940000
14.03999991	-107.95920000
14.07999991	-85.49760000
14.11999991	-63.03598000
14.15999991	-40.57436000
14.19999991	-18.11273000
14.23999991	-0.15259250
14.27999991	17.80755000
14.31999991	40.26917000
14.35999991	62.73079000
14.39999991	80.70620000
14.43999991	103.15250000
14.47999991	116.64170000
14.51999991	134.60190000
14.55999991	152.57730000
14.59999991	166.05120000
14.63999991	179.52510000
14.67999991	192.99900000
14.71999991	206.47300000
14.75999991	215.46070000
14.79999991	224.44840000
14.83999991	228.93460000
14.87999991	233.43610000
14.91999991	233.43610000
14.95999991	233.43610000
14.99999991	233.43610000
15.03999991	228.93460000
15.07999991	224.44840000
15.11999991	215.46070000
15.15999991	201.98670000
15.19999991	188.51280000
15.23999991	175.03890000
15.27999991	157.06350000
15.31999991	139.10340000
15.35999991	121.12800000
15.39999991	98.66634000
15.43999991	76.20471000
15.47999991	53.74309000
15.51999991	35.78295000
15.55999991	13.32133000
15.59999991	-9.12503300
15.63999990	-31.58666000
15.67999990	-49.56206000
15.71999990	-67.52220000
15.75999990	-89.98383000
15.79999990	-107.95920000
15.83999990	-125.91940000
15.87999990	-139.40860000
15.91999990	-152.88250000
15.95999990	-166.35640000
15.99999990	-179.83030000
16.03999990	-188.81800000
16.07999990	-197.80570000
16.11999990	-206.77810000
16.15999990	-215.76590000
16.19999990	-220.26730000
16.23999990	-220.26730000
16.27999990	-224.75350000
16.31999990	-224.75350000
16.35999990	-220.26730000
16.39999990	-215.76590000
16.43999990	-206.77810000
16.47999990	-197.80570000
16.51999990	-184.33180000
16.55999990	-170.84260000
16.59999990	-157.36870000
16.63999990	-143.89480000
16.67999990	-125.91940000
16.71999990	-103.45770000
16.75999990	-85.49760000
16.79999990	-63.03598000
16.83999990	-40.57436000
16.87999990	-18.11273000
16.91999990	-0.15259250
16.95999990	17.80755000
16.99999990	44.75539000
17.03999990	67.21701000
17.07999990	80.70620000
17.11999990	89.67863000
17.15999990	116.64170000
17.19999990	143.58960000
17.23999990	148.07580000
17.27999989	161.56500000
17.31999989	175.03890000
17.35999989	188.51280000
17.39999989	197.50050000
17.43999989	201.98670000
17.47999989	210.97440000
17.51999989	215.46070000
17.55999989	219.96210000
17.59999989	219.96210000
17.63999989	219.96210000
17.67999989	219.96210000
17.71999989	210.97440000
17.75999989	210.97440000
17.79999989	197.50050000
17.83999989	188.51280000
17.87999989	175.03890000
17.91999989	161.56500000
17.95999989	148.07580000
17.99999989	134.60190000
18.03999989	116.64170000
18.07999989	94.18011000
18.11999989	76.20471000
18.15999989	53.74309000
18.19999989	35.78295000
18.23999989	13.32133000
18.27999989	-9.12503300
18.31999989	-22.59896000
18.35999989	-45.06058000
18.39999989	-67.52220000
18.43999989	-89.98383000
18.47999989	-103.45770000
18.51999989	-116.94690000
18.55999989	-134.90710000
18.59999989	-148.38100000
18.63999989	-161.87020000
18.67999989	-175.34410000
18.71999989	-184.33180000
18.75999989	-193.30420000
18.79999989	-197.80570000
18.83999989	-206.77810000
18.87999989	-206.77810000
18.91999989	-211.27960000
18.95999988	-211.27960000
18.99999988	-206.77810000
19.03999988	-202.29190000
19.07999988	-197.80570000
19.11999988	-193.30420000
19.15999988	-184.33180000
19.19999988	-175.34410000
19.23999988	-161.87020000
19.27999988	-143.89480000
19.31999988	-130.42080000
19.35999988	-112.44540000
19.39999988	-98.97152000
19.43999988	-81.01138000
19.47999988	-63.03598000
19.51999988	-36.08813000
19.55999988	-18.11273000
19.59999988	-0.15259250
19.63999988	17.80755000
19.67999988	40.26917000
19.71999988	58.24457000
19.75999988	80.70620000
19.79999988	94.18011000
19.83999988	116.64170000
19.87999988	130.11560000
19.91999988	143.58960000
19.95999988	157.06350000
19.99999988	175.03890000
20.03999988	179.52510000
20.07999988	188.51280000
20.11999988	197.50050000
20.15999988	206.47300000
20.19999988	206.47300000
20.23999988	210.97440000
20.27999988	206.47300000
20.31999988	210.97440000
20.35999988	206.47300000
20.39999988	201.98670000
20.43999988	192.99900000
20.47999988	188.51280000
20.51999988	179.52510000
20.55999988	166.05120000
20.59999987	152.57730000
20.63999987	139.10340000
20.67999987	125.61420000
20.71999987	107.65400000
20.75999987	89.67863000
20.79999987	71.71850000
20.83999987	53.74309000
20.87999987	35.78295000
20.91999987	13.32133000
20.95999987	-4.63881300
20.99999987	-27.10044000
21.03999987	-40.57436000
21.07999987	-63.03598000
21.11999987	-81.01138000
21.15999987	-98.97152000
21.19999987	-112.44540000
21.23999987	-130.42080000
21.27999987	-143.89480000
21.31999987	-157.36870000
21.35999987	-166.35640000
21.39999987	-179.83030000
21.43999987	-184.33180000
21.47999987	-193.30420000
21.51999987	-197.80570000
21.55999987	-197.80570000
21.59999987	-202.29190000
21.63999987	-202.29190000
21.67999987	-197.80570000
21.71999987	-193.30420000
21.75999987	-188.81800000
21.79999987	-179.83030000
21.83999987	-170.84260000
21.87999987	-161.87020000
21.91999987	-148.38100000
21.95999987	-139.40860000
21.99999987	-125.91940000
22.03999987	-107.95920000
22.07999987	-89.98383000
22.11999987	-72.02368000
22.15999987	-54.04828000
22.19999987	-36.08813000
22.23999986	-18.11273000
22.27999986	-0.15259250
22.31999986	17.80755000
22.35999986	40.26917000
22.39999986	58.24457000
22.43999986	76.20471000
22.47999986	89.67863000
22.51999986	107.65400000
22.55999986	125.61420000
22.59999986	139.10340000
22.63999986	152.57730000
22.67999986	161.56500000
22.71999986	175.03890000
22.75999986	179.52510000
22.79999986	188.51280000
22.83999986	192.99900000
22.87999986	197.50050000
22.91999986	197.50050000
22.95999986	197.50050000
22.99999986	197.50050000
23.03999986	197.50050000
23.07999986	192.99900000
23.11999986	184.02660000
23.15999986	175.03890000
23.19999986	166.05120000
23.23999986	157.06350000
23.27999986	143.58960000
23.31999986	130.11560000
23.35999986	116.64170000
23.39999986	98.66634000
23.43999986	80.70620000
23.47999986	67.21701000
23.51999986	49.25687000
23.55999986	31.28147000
23.59999986	13.32133000
23.63999986	-4.63881300
23.67999986	-22.59896000
23.71999986	-40.57436000
23.75999986	-63.03598000
23.79999986	-76.50990000
23.83999986	-94.48530000
23.87999985	-107.95920000
23.91999985	-125.91940000
23.95999985	-139.40860000
23.99999985	-148.38100000
24.03999985	-161.87020000
24.07999985	-170.84260000
24.11999985	-179.83030000
24.15999985	-184.33180000
24.19999985	-188.81800000
24.23999985	-188.81800000
24.27999985	-193.30420000
24.31999985	-188.81800000
24.35999985	-188.81800000
24.39999985	-184.33180000
24.43999985	-179.83030000
24.47999985	-170.84260000
24.51999985	-161.87020000
24.55999985	-148.38100000
24.59999985	-139.40860000
24.63999985	-125.91940000
24.67999985	-112.44540000
24.71999985	-103.45770000
24.75999985	-85.49760000
24.79999985	-67.52220000
24.83999985	-49.56206000
24.87999985	-36.08813000
24.91999985	-18.11273000
24.95999985	-0.15259250
24.99999985	17.80755000
25.03999985	35.78295000
25.07999985	53.74309000
25.11999985	71.71850000
25.15999985	89.67863000
25.19999985	107.65400000
25.23999985	121.12800000
25.27999985	130.11560000
25.31999985	143.58960000
25.35999985	157.06350000
25.39999985	166.05120000
25.43999985	175.03890000
25.47999985	184.02660000
25.51999984	188.51280000
25.55999984	192.99900000
25.59999984	192.99900000
25.63999984	192.99900000
25.67999984	188.51280000
25.71999984	184.02660000
25.75999984	179.52510000
25.79999984	175.03890000
25.83999984	166.05120000
25.87999984	157.06350000
25.91999984	148.07580000
25.95999984	134.60190000
25.99999984	121.12800000
26.03999984	107.65400000
26.07999984	89.67863000
26.11999984	76.20471000
26.15999984	62.73079000
26.19999984	44.75539000
26.23999984	26.79525000
26.27999984	8.81984900
26.31999984	-4.63881300
26.35999984	-22.59896000
26.39999984	-40.57436000
26.43999984	-58.54976000
26.47999984	-72.02368000
26.51999984	-89.98383000
26.55999984	-103.45770000
26.59999984	-116.94690000
26.63999984	-134.90710000
26.67999984	-143.89480000
26.71999984	-152.88250000
26.75999984	-161.87020000
26.79999984	-170.84260000
26.83999984	-175.34410000
26.87999984	-179.83030000
26.91999984	-184.33180000
26.95999984	-193.30420000
26.99999984	-179.83030000
27.03999984	-170.84260000
27.07999984	-175.34410000
27.11999984	-170.84260000
27.15999983	-166.35640000
27.19999983	-148.38100000
27.23999983	-143.89480000
27.27999983	-134.90710000
27.31999983	-116.94690000
27.35999983	-107.95920000
27.39999983	-94.48530000
27.43999983	-76.50990000
27.47999983	-63.03598000
27.51999983	-45.06058000
27.55999983	-27.10044000
27.59999983	-13.62651000
27.63999983	4.33362800
27.67999983	17.80755000
27.71999983	35.78295000
27.75999983	53.74309000
27.79999983	71.71850000
27.83999983	85.19241000
27.87999983	98.66634000
27.91999983	112.14030000
27.95999983	130.11560000
27.99999983	139.10340000
28.03999983	152.57730000
28.07999983	157.06350000
28.11999983	166.05120000
28.15999983	175.03890000
28.19999983	179.52510000
28.23999983	184.02660000
28.27999983	179.52510000
28.31999983	184.02660000
28.35999983	179.52510000
28.39999983	179.52510000
28.43999983	175.03890000
28.47999983	166.05120000
28.51999983	157.06350000
28.55999983	148.07580000
28.59999983	139.10340000
28.63999983	125.61420000
28.67999983	112.14030000
28.71999983	98.66634000
28.75999983	85.19241000
28.79999982	71.71850000
28.83999982	53.74309000
28.87999982	40.26917000
28.91999982	22.29377000
28.95999982	4.33362800
28.99999982	-9.12503300
29.03999982	-27.10044000
29.07999982	-40.57436000
29.11999982	-58.54976000
29.15999982	-72.02368000
29.19999982	-85.49760000
29.23999982	-98.97152000
29.27999982	-112.44540000
29.31999982	-125.91940000
29.35999982	-134.90710000
29.39999982	-143.89480000
29.43999982	-152.88250000
29.47999982	-161.87020000
29.51999982	-166.35640000
29.55999982	-170.84260000
29.59999982	-170.84260000
29.63999982	-175.34410000
29.67999982	-175.34410000
29.71999982	-170.84260000
29.75999982	-161.87020000
29.79999982	-161.87020000
29.83999982	-152.88250000
29.87999982	-148.38100000
29.91999982	-134.90710000
29.95999982	-125.91940000
29.99999982	-112.44540000
30.03999982	-98.97152000
30.07999982	-89.98383000
30.11999982	-72.02368000
30.15999982	-58.54976000
30.19999982	-40.57436000
30.23999982	-27.10044000
30.27999982	-9.12503300
30.31999982	8.81984900
30.35999982	26.79525000
30.39999982	35.78295000
30.43999982	53.74309000
30.47999981	67.21701000
30.51999981	80.70620000
30.55999981	94.18011000
30.59999981	107.65400000
30.63999981	121.12800000
30.67999981	134.60190000
30.71999981	139.10340000
30.75999981	152.57730000
30.79999981	157.06350000
30.83999981	161.56500000
