Time,Channel A
(us),(mV)

0.00000000,76.20471000
0.04000000,71.71850000
0.08000000,71.71850000
0.12000000,71.71850000
0.16000000,67.21701000
0.20000000,67.21701000
0.24000000,67.21701000
0.28000000,67.21701000
0.32000000,67.21701000
0.36000000,62.73079000
0.40000000,58.24457000
0.44000000,53.74309000
0.48000000,40.26917000
0.52000000,31.28147000
0.56000000,17.80755000
0.60000000,4.33362800
0.64000000,-4.63881300
0.68000000,-13.62651000
0.72000000,-22.59896000
0.76000000,-27.10044000
0.80000000,-31.58666000
0.83999999,-36.08813000
0.87999999,-40.57436000
0.91999999,-45.06058000
0.95999999,-49.56206000
0.99999999,-58.54976000
1.03999999,-63.03598000
1.07999999,-67.52220000
1.11999999,-72.02368000
1.15999999,-72.02368000
1.19999999,-72.02368000
1.23999999,-72.02368000
1.27999999,-67.52220000
1.31999999,-67.52220000
1.35999999,-67.52220000
1.39999999,-63.03598000
1.43999999,-63.03598000
1.47999999,-67.52220000
1.51999999,-63.03598000
1.55999999,-63.03598000
1.59999999,-58.54976000
1.63999999,-58.54976000
1.67999999,-49.56206000
1.71999999,-45.06058000
1.75999999,-36.08813000
1.79999999,-31.58666000
1.83999999,-22.59896000
1.87999999,-18.11273000
1.91999999,-9.12503300
1.95999999,-0.15259250
1.99999999,4.33362800
2.03999999,13.32133000
2.07999999,17.80755000
2.11999999,26.79525000
2.15999999,31.28147000
2.19999999,40.26917000
2.23999999,44.75539000
2.27999999,53.74309000
2.31999999,62.73079000
2.35999999,67.21701000
2.39999999,67.21701000
2.43999999,71.71850000
2.47999998,71.71850000
2.51999998,76.20471000
2.55999998,76.20471000
2.59999998,71.71850000
2.63999998,71.71850000
2.67999998,71.71850000
2.71999998,71.71850000
2.75999998,71.71850000
2.79999998,71.71850000
2.83999998,71.71850000
2.87999998,62.73079000
2.91999998,62.73079000
2.95999998,58.24457000
2.99999998,53.74309000
3.03999998,44.75539000
3.07999998,35.78295000
3.11999998,35.78295000
3.15999998,26.79525000
3.19999998,17.80755000
3.23999998,17.80755000
3.27999998,8.81984900
3.31999998,-0.15259250
3.35999998,-4.63881300
3.39999998,-9.12503300
3.43999998,-18.11273000
3.47999998,-22.59896000
3.51999998,-31.58666000
3.55999998,-36.08813000
3.59999998,-40.57436000
3.63999998,-49.56206000
3.67999998,-54.04828000
3.71999998,-58.54976000
3.75999998,-63.03598000
3.79999998,-63.03598000
3.83999998,-67.52220000
3.87999998,-67.52220000
3.91999998,-72.02368000
3.95999998,-72.02368000
3.99999998,-72.02368000
4.03999998,-67.52220000
4.07999998,-67.52220000
4.11999997,-67.52220000
4.15999997,-63.03598000
4.19999997,-63.03598000
4.23999997,-54.04828000
4.27999997,-49.56206000
4.31999997,-45.06058000
4.35999997,-40.57436000
4.39999997,-36.08813000
4.43999997,-27.10044000
4.47999997,-22.59896000
4.51999997,-18.11273000
4.55999997,-13.62651000
4.59999997,-4.63881300
4.63999997,-0.15259250
4.67999997,4.33362800
4.71999997,13.32133000
4.75999997,17.80755000
4.79999997,22.29377000
4.83999997,31.28147000
4.87999997,35.78295000
4.91999997,44.75539000
4.95999997,49.25687000
4.99999997,53.74309000
5.03999997,58.24457000
5.07999997,62.73079000
5.11999997,67.21701000
5.15999997,71.71850000
5.19999997,71.71850000
5.23999997,71.71850000
5.27999997,76.20471000
5.31999997,76.20471000
5.35999997,76.20471000
5.39999997,71.71850000
5.43999997,71.71850000
5.47999997,71.71850000
5.51999997,67.21701000
5.55999997,62.73079000
5.59999997,58.24457000
5.63999997,53.74309000
5.67999997,49.25687000
5.71999997,40.26917000
5.75999996,35.78295000
5.79999996,31.28147000
5.83999996,26.79525000
5.87999996,17.80755000
5.91999996,13.32133000
5.95999996,4.33362800
5.99999996,-0.15259250
6.03999996,-4.63881300
6.07999996,-13.62651000
6.11999996,-18.11273000
6.15999996,-22.59896000
6.19999996,-31.58666000
6.23999996,-36.08813000
6.27999996,-40.57436000
6.31999996,-45.06058000
6.35999996,-54.04828000
6.39999996,-54.04828000
6.43999996,-58.54976000
6.47999996,-58.54976000
6.51999996,-67.52220000
6.55999996,-63.03598000
6.59999996,-67.52220000
6.63999996,-67.52220000
6.67999996,-67.52220000
6.71999996,-67.52220000
6.75999996,-67.52220000
6.79999996,-63.03598000
6.83999996,-58.54976000
6.87999996,-58.54976000
6.91999996,-54.04828000
6.95999996,-49.56206000
6.99999996,-45.06058000
7.03999996,-40.57436000
7.07999996,-36.08813000
7.11999996,-27.10044000
7.15999996,-22.59896000
7.19999996,-18.11273000
7.23999996,-9.12503300
7.27999996,-4.63881300
7.31999996,-0.15259250
7.35999996,8.81984900
7.39999996,13.32133000
7.43999995,17.80755000
7.47999995,26.79525000
7.51999995,31.28147000
7.55999995,35.78295000
7.59999995,40.26917000
7.63999995,49.25687000
7.67999995,53.74309000
7.71999995,58.24457000
7.75999995,58.24457000
7.79999995,62.73079000
7.83999995,67.21701000
7.87999995,67.21701000
7.91999995,71.71850000
7.95999995,71.71850000
7.99999995,71.71850000
8.03999995,67.21701000
8.07999995,71.71850000
8.11999995,71.71850000
8.15999995,62.73079000
8.19999995,62.73079000
8.23999995,58.24457000
8.27999995,53.74309000
8.31999995,49.25687000
8.35999995,44.75539000
8.39999995,40.26917000
8.43999995,35.78295000
8.47999995,31.28147000
8.51999995,17.80755000
8.55999995,17.80755000
8.59999995,13.32133000
8.63999995,4.33362800
8.67999995,-0.15259250
8.71999995,-9.12503300
8.75999995,-13.62651000
8.79999995,-18.11273000
8.83999995,-22.59896000
8.87999995,-31.58666000
8.91999995,-36.08813000
8.95999995,-36.08813000
8.99999995,-45.06058000
9.03999995,-49.56206000
9.07999994,-54.04828000
9.11999994,-54.04828000
9.15999994,-58.54976000
9.19999994,-58.54976000
9.23999994,-63.03598000
9.27999994,-63.03598000
9.31999994,-63.03598000
9.35999994,-63.03598000
9.39999994,-63.03598000
9.43999994,-63.03598000
9.47999994,-58.54976000
9.51999994,-58.54976000
9.55999994,-58.54976000
9.59999994,-54.04828000
9.63999994,-45.06058000
9.67999994,-40.57436000
9.71999994,-36.08813000
9.75999994,-31.58666000
9.79999994,-27.10044000
9.83999994,-18.11273000
9.87999994,-18.11273000
9.91999994,-9.12503300
9.95999994,-4.63881300
9.99999994,-0.15259250
10.03999994,8.81984900
10.07999994,13.32133000
10.11999994,17.80755000
10.15999994,31.28147000
10.19999994,31.28147000
10.23999994,35.78295000
10.27999994,40.26917000
10.31999994,44.75539000
10.35999994,49.25687000
10.39999994,53.74309000
10.43999994,53.74309000
10.47999994,62.73079000
10.51999994,62.73079000
10.55999994,62.73079000
10.59999994,67.21701000
10.63999994,67.21701000
10.67999994,67.21701000
10.71999993,67.21701000
10.75999993,67.21701000
10.79999993,67.21701000
10.83999993,62.73079000
10.87999993,58.24457000
10.91999993,53.74309000
10.95999993,53.74309000
10.99999993,49.25687000
11.03999993,44.75539000
11.07999993,35.78295000
11.11999993,35.78295000
11.15999993,31.28147000
11.19999993,22.29377000
11.23999993,17.80755000
11.27999993,8.81984900
11.31999993,4.33362800
11.35999993,-0.15259250
11.39999993,-9.12503300
11.43999993,-13.62651000
11.47999993,-18.11273000
11.51999993,-22.59896000
11.55999993,-31.58666000
11.59999993,-36.08813000
11.63999993,-36.08813000
11.67999993,-40.57436000
11.71999993,-45.06058000
11.75999993,-49.56206000
11.79999993,-54.04828000
11.83999993,-54.04828000
11.87999993,-58.54976000
11.91999993,-58.54976000
11.95999993,-58.54976000
11.99999993,-63.03598000
12.03999993,-58.54976000
12.07999993,-58.54976000
12.11999993,-58.54976000
12.15999993,-58.54976000
12.19999993,-54.04828000
12.23999993,-49.56206000
12.27999993,-45.06058000
12.31999993,-45.06058000
12.35999992,-40.57436000
12.39999992,-36.08813000
12.43999992,-31.58666000
12.47999992,-22.59896000
12.51999992,-18.11273000
12.55999992,-13.62651000
12.59999992,-9.12503300
12.63999992,-0.15259250
12.67999992,4.33362800
12.71999992,8.81984900
12.75999992,13.32133000
12.79999992,17.80755000
12.83999992,26.79525000
12.87999992,31.28147000
12.91999992,35.78295000
12.95999992,40.26917000
12.99999992,44.75539000
13.03999992,49.25687000
13.07999992,53.74309000
13.11999992,53.74309000
13.15999992,58.24457000
13.19999992,58.24457000
13.23999992,62.73079000
13.27999992,62.73079000
13.31999992,62.73079000
13.35999992,67.21701000
13.39999992,62.73079000
13.43999992,62.73079000
13.47999992,62.73079000
13.51999992,58.24457000
13.55999992,53.74309000
13.59999992,53.74309000
13.63999992,49.25687000
13.67999992,44.75539000
13.71999992,40.26917000
13.75999992,35.78295000
13.79999992,31.28147000
13.83999992,26.79525000
13.87999992,17.80755000
13.91999992,13.32133000
13.95999992,8.81984900
13.99999991,4.33362800
14.03999991,-4.63881300
14.07999991,-9.12503300
14.11999991,-13.62651000
14.15999991,-18.11273000
14.19999991,-22.59896000
14.23999991,-27.10044000
14.27999991,-31.58666000
14.31999991,-36.08813000
14.35999991,-40.57436000
14.39999991,-45.06058000
14.43999991,-45.06058000
14.47999991,-49.56206000
14.51999991,-54.04828000
14.55999991,-54.04828000
14.59999991,-54.04828000
14.63999991,-58.54976000
14.67999991,-58.54976000
14.71999991,-58.54976000
14.75999991,-54.04828000
14.79999991,-54.04828000
14.83999991,-54.04828000
14.87999991,-49.56206000
14.91999991,-45.06058000
14.95999991,-45.06058000
14.99999991,-40.57436000
15.03999991,-36.08813000
15.07999991,-31.58666000
15.11999991,-27.10044000
15.15999991,-22.59896000
15.19999991,-18.11273000
15.23999991,-13.62651000
15.27999991,-9.12503300
15.31999991,-0.15259250
15.35999991,4.33362800
15.39999991,8.81984900
15.43999991,13.32133000
15.47999991,17.80755000
15.51999991,22.29377000
15.55999991,31.28147000
15.59999991,35.78295000
15.63999990,40.26917000
15.67999990,44.75539000
15.71999990,44.75539000
15.75999990,53.74309000
15.79999990,53.74309000
15.83999990,53.74309000
15.87999990,58.24457000
15.91999990,58.24457000
15.95999990,62.73079000
15.99999990,62.73079000
16.03999990,58.24457000
16.07999990,58.24457000
16.11999990,58.24457000
16.15999990,53.74309000
16.19999990,53.74309000
16.23999990,53.74309000
16.27999990,49.25687000
16.31999990,44.75539000
16.35999990,40.26917000
16.39999990,35.78295000
16.43999990,35.78295000
16.47999990,31.28147000
16.51999990,22.29377000
16.55999990,17.80755000
16.59999990,13.32133000
16.63999990,8.81984900
16.67999990,4.33362800
16.71999990,-0.15259250
16.75999990,-9.12503300
16.79999990,-13.62651000
16.83999990,-18.11273000
16.87999990,-22.59896000
16.91999990,-27.10044000
16.95999990,-31.58666000
16.99999990,-36.08813000
17.03999990,-40.57436000
17.07999990,-40.57436000
17.11999990,-45.06058000
17.15999990,-49.56206000
17.19999990,-49.56206000
17.23999990,-54.04828000
17.27999989,-54.04828000
17.31999989,-54.04828000
17.35999989,-54.04828000
17.39999989,-54.04828000
17.43999989,-54.04828000
17.47999989,-54.04828000
17.51999989,-49.56206000
17.55999989,-45.06058000
17.59999989,-45.06058000
17.63999989,-40.57436000
17.67999989,-36.08813000
17.71999989,-36.08813000
17.75999989,-31.58666000
17.79999989,-27.10044000
17.83999989,-18.11273000
17.87999989,-18.11273000
17.91999989,-13.62651000
17.95999989,-4.63881300
17.99999989,-0.15259250
18.03999989,4.33362800
18.07999989,8.81984900
18.11999989,13.32133000
18.15999989,17.80755000
18.19999989,26.79525000
18.23999989,31.28147000
18.27999989,35.78295000
18.31999989,35.78295000
18.35999989,40.26917000
18.39999989,44.75539000
18.43999989,49.25687000
18.47999989,49.25687000
18.51999989,53.74309000
18.55999989,53.74309000
18.59999989,58.24457000
18.63999989,58.24457000
18.67999989,58.24457000
18.71999989,58.24457000
18.75999989,53.74309000
18.79999989,53.74309000
18.83999989,53.74309000
18.87999989,53.74309000
18.91999989,49.25687000
18.95999988,44.75539000
18.99999988,44.75539000
19.03999988,40.26917000
19.07999988,35.78295000
19.11999988,31.28147000
19.15999988,26.79525000
19.19999988,17.80755000
19.23999988,17.80755000
19.27999988,13.32133000
19.31999988,8.81984900
19.35999988,4.33362800
19.39999988,-0.15259250
19.43999988,-4.63881300
19.47999988,-13.62651000
19.51999988,-18.11273000
19.55999988,-22.59896000
19.59999988,-27.10044000
19.63999988,-31.58666000
19.67999988,-36.08813000
19.71999988,-40.57436000
19.75999988,-40.57436000
19.79999988,-45.06058000
19.83999988,-45.06058000
19.87999988,-45.06058000
19.91999988,-49.56206000
19.95999988,-49.56206000
19.99999988,-54.04828000
20.03999988,-54.04828000
20.07999988,-49.56206000
20.11999988,-49.56206000
20.15999988,-45.06058000
20.19999988,-45.06058000
20.23999988,-40.57436000
20.27999988,-40.57436000
20.31999988,-40.57436000
20.35999988,-36.08813000
20.39999988,-31.58666000
20.43999988,-27.10044000
20.47999988,-22.59896000
20.51999988,-18.11273000
20.55999988,-13.62651000
20.59999987,-9.12503300
20.63999987,-4.63881300
20.67999987,-0.15259250
20.71999987,4.33362800
20.75999987,8.81984900
20.79999987,13.32133000
20.83999987,17.80755000
20.87999987,26.79525000
20.91999987,31.28147000
20.95999987,31.28147000
20.99999987,35.78295000
21.03999987,40.26917000
21.07999987,44.75539000
21.11999987,49.25687000
21.15999987,49.25687000
21.19999987,53.74309000
21.23999987,53.74309000
21.27999987,53.74309000
21.31999987,58.24457000
21.35999987,53.74309000
21.39999987,53.74309000
21.43999987,53.74309000
21.47999987,53.74309000
21.51999987,53.74309000
21.55999987,53.74309000
21.59999987,44.75539000
21.63999987,44.75539000
21.67999987,40.26917000
21.71999987,35.78295000
21.75999987,35.78295000
21.79999987,31.28147000
21.83999987,26.79525000
21.87999987,17.80755000
21.91999987,17.80755000
21.95999987,13.32133000
21.99999987,4.33362800
22.03999987,-0.15259250
22.07999987,-0.15259250
22.11999987,-9.12503300
22.15999987,-13.62651000
22.19999987,-18.11273000
22.23999986,-22.59896000
22.27999986,-27.10044000
22.31999986,-27.10044000
22.35999986,-36.08813000
22.39999986,-36.08813000
22.43999986,-36.08813000
22.47999986,-40.57436000
22.51999986,-40.57436000
22.55999986,-45.06058000
22.59999986,-45.06058000
22.63999986,-49.56206000
22.67999986,-49.56206000
22.71999986,-49.56206000
22.75999986,-49.56206000
22.79999986,-49.56206000
22.83999986,-45.06058000
22.87999986,-45.06058000
22.91999986,-40.57436000
22.95999986,-40.57436000
22.99999986,-36.08813000
23.03999986,-31.58666000
23.07999986,-31.58666000
23.11999986,-27.10044000
23.15999986,-22.59896000
23.19999986,-18.11273000
23.23999986,-13.62651000
23.27999986,-9.12503300
23.31999986,-0.15259250
23.35999986,8.81984900
23.39999986,31.28147000
23.43999986,44.75539000
23.47999986,40.26917000
23.51999986,26.79525000
23.55999986,22.29377000
23.59999986,17.80755000
23.63999986,-0.15259250
23.67999986,-18.11273000
23.71999986,-18.11273000
23.75999986,-0.15259250
23.79999986,31.28147000
23.83999986,71.71850000
23.87999985,112.14030000
23.91999985,139.10340000
23.95999985,170.53740000
23.99999985,206.47300000
24.03999985,201.98670000
24.07999985,197.50050000
24.11999985,188.51280000
24.15999985,179.52510000
24.19999985,157.06350000
24.23999985,121.12800000
24.27999985,80.70620000
24.31999985,44.75539000
24.35999985,4.33362800
24.39999985,-31.58666000
24.43999985,-63.03598000
24.47999985,-94.48530000
24.51999985,-112.44540000
24.55999985,-125.91940000
24.59999985,-130.42080000
24.63999985,-134.90710000
24.67999985,-130.42080000
24.71999985,-121.43310000
24.75999985,-103.45770000
24.79999985,-85.49760000
24.83999985,-67.52220000
24.87999985,-54.04828000
24.91999985,-36.08813000
24.95999985,-22.59896000
24.99999985,-13.62651000
25.03999985,-9.12503300
25.07999985,-18.11273000
25.11999985,-31.58666000
25.15999985,-40.57436000
25.19999985,-58.54976000
25.23999985,-76.50990000
25.27999985,-94.48530000
25.31999985,-107.95920000
25.35999985,-121.43310000
25.39999985,-130.42080000
25.43999985,-139.40860000
25.47999985,-139.40860000
25.51999984,-139.40860000
25.55999984,-125.91940000
25.59999984,-112.44540000
25.63999984,-89.98383000
25.67999984,-63.03598000
25.71999984,-36.08813000
25.75999984,-0.15259250
25.79999984,31.28147000
25.83999984,62.73079000
25.87999984,89.67863000
25.91999984,107.65400000
25.95999984,125.61420000
25.99999984,130.11560000
26.03999984,134.60190000
26.07999984,125.61420000
26.11999984,121.12800000
26.15999984,116.64170000
26.19999984,107.65400000
26.23999984,107.65400000
26.27999984,94.18011000
26.31999984,94.18011000
26.35999984,103.15250000
26.39999984,98.66634000
26.43999984,103.15250000
26.47999984,112.14030000
26.51999984,107.65400000
26.55999984,112.14030000
26.59999984,116.64170000
26.63999984,107.65400000
26.67999984,103.15250000
26.71999984,98.66634000
26.75999984,85.19241000
26.79999984,80.70620000
26.83999984,71.71850000
26.87999984,58.24457000
26.91999984,49.25687000
26.95999984,35.78295000
26.99999984,17.80755000
27.03999984,-0.15259250
27.07999984,-13.62651000
27.11999984,-36.08813000
27.15999983,-54.04828000
27.19999983,-67.52220000
27.23999983,-81.01138000
27.27999983,-94.48530000
27.31999983,-103.45770000
27.35999983,-107.95920000
27.39999983,-112.44540000
27.43999983,-112.44540000
27.47999983,-112.44540000
27.51999983,-107.95920000
27.55999983,-107.95920000
27.59999983,-103.45770000
27.63999983,-103.45770000
27.67999983,-98.97152000
27.71999983,-98.97152000
27.75999983,-94.48530000
27.79999983,-94.48530000
27.83999983,-94.48530000
27.87999983,-94.48530000
27.91999983,-94.48530000
27.95999983,-94.48530000
27.99999983,-89.98383000
28.03999983,-89.98383000
28.07999983,-81.01138000
28.11999983,-76.50990000
28.15999983,-67.52220000
28.19999983,-58.54976000
28.23999983,-45.06058000
28.27999983,-36.08813000
28.31999983,-18.11273000
28.35999983,-4.63881300
28.39999983,8.81984900
28.43999983,26.79525000
28.47999983,40.26917000
28.51999983,58.24457000
28.55999983,71.71850000
28.59999983,85.19241000
28.63999983,94.18011000
28.67999983,107.65400000
28.71999983,112.14030000
28.75999983,116.64170000
28.79999982,121.12800000
28.83999982,116.64170000
28.87999982,121.12800000
28.91999982,121.12800000
28.95999982,116.64170000
28.99999982,112.14030000
29.03999982,107.65400000
29.07999982,103.15250000
29.11999982,103.15250000
29.15999982,98.66634000
29.19999982,94.18011000
29.23999982,94.18011000
29.27999982,89.67863000
29.31999982,89.67863000
29.35999982,85.19241000
29.39999982,80.70620000
29.43999982,76.20471000
29.47999982,71.71850000
29.51999982,62.73079000
29.55999982,53.74309000
29.59999982,44.75539000
29.63999982,31.28147000
29.67999982,17.80755000
29.71999982,4.33362800
29.75999982,-9.12503300
29.79999982,-22.59896000
29.83999982,-36.08813000
29.87999982,-54.04828000
29.91999982,-63.03598000
29.95999982,-76.50990000
29.99999982,-85.49760000
30.03999982,-94.48530000
30.07999982,-103.45770000
30.11999982,-107.95920000
30.15999982,-112.44540000
30.19999982,-112.44540000
30.23999982,-116.94690000
30.27999982,-112.44540000
30.31999982,-112.44540000
30.35999982,-107.95920000
30.39999982,-107.95920000
30.43999982,-103.45770000
30.47999981,-94.48530000
30.51999981,-89.98383000
30.55999981,-89.98383000
30.59999981,-81.01138000
30.63999981,-81.01138000
30.67999981,-72.02368000
30.71999981,-67.52220000
30.75999981,-63.03598000
30.79999981,-58.54976000
30.83999981,-54.04828000
30.87999981,-45.06058000
30.91999981,-36.08813000
30.95999981,-27.10044000
30.99999981,-18.11273000
31.03999981,-4.63881300
31.07999981,4.33362800
31.11999981,17.80755000
31.15999981,31.28147000
31.19999981,44.75539000
31.23999981,58.24457000
31.27999981,67.21701000
31.31999981,80.70620000
31.35999981,89.67863000
31.39999981,103.15250000
31.43999981,107.65400000
31.47999981,112.14030000
31.51999981,116.64170000
31.55999981,121.12800000
31.59999981,121.12800000
31.63999981,121.12800000
