Time,Channel A
(us),(mV)

0.00000000,-0.15259250
0.04000000,13.32133000
0.08000000,26.79525000
0.12000000,35.78295000
0.16000000,49.25687000
0.20000000,58.24457000
0.24000000,71.71850000
0.28000000,80.70620000
0.32000000,85.19241000
0.36000000,94.18011000
0.40000000,103.15250000
0.44000000,112.14030000
0.48000000,116.64170000
0.52000000,121.12800000
0.56000000,125.61420000
0.60000000,125.61420000
0.64000000,125.61420000
0.68000000,125.61420000
0.72000000,125.61420000
0.76000000,125.61420000
0.80000000,125.61420000
0.83999999,121.12800000
0.87999999,116.64170000
0.91999999,107.65400000
0.95999999,103.15250000
0.99999999,89.67863000
1.03999999,85.19241000
1.07999999,71.71850000
1.11999999,62.73079000
1.15999999,53.74309000
1.19999999,40.26917000
1.23999999,31.28147000
1.27999999,17.80755000
1.31999999,8.81984900
1.35999999,-4.63881300
1.39999999,-18.11273000
1.43999999,-27.10044000
1.47999999,-36.08813000
1.51999999,-49.56206000
1.55999999,-58.54976000
1.59999999,-72.02368000
1.63999999,-76.50990000
1.67999999,-85.49760000
1.71999999,-94.48530000
1.75999999,-98.97152000
1.79999999,-107.95920000
1.83999999,-112.44540000
1.87999999,-112.44540000
1.91999999,-116.94690000
1.95999999,-116.94690000
1.99999999,-121.43310000
2.03999999,-121.43310000
2.07999999,-116.94690000
2.11999999,-116.94690000
2.15999999,-112.44540000
2.19999999,-107.95920000
2.23999999,-103.45770000
2.27999999,-94.48530000
2.31999999,-89.98383000
2.35999999,-81.01138000
2.39999999,-72.02368000
2.43999999,-63.03598000
2.47999998,-54.04828000
2.51999998,-40.57436000
2.55999998,-31.58666000
2.59999998,-18.11273000
2.63999998,-9.12503300
2.67999998,4.33362800
2.71999998,13.32133000
2.75999998,22.29377000
2.79999998,35.78295000
2.83999998,49.25687000
2.87999998,58.24457000
2.91999998,67.21701000
2.95999998,76.20471000
2.99999998,85.19241000
3.03999998,94.18011000
3.07999998,103.15250000
3.11999998,107.65400000
3.15999998,112.14030000
3.19999998,116.64170000
3.23999998,121.12800000
3.27999998,121.12800000
3.31999998,121.12800000
3.35999998,121.12800000
3.39999998,121.12800000
3.43999998,121.12800000
3.47999998,116.64170000
3.51999998,112.14030000
3.55999998,107.65400000
3.59999998,103.15250000
3.63999998,89.67863000
3.67999998,89.67863000
3.71999998,76.20471000
3.75999998,71.71850000
3.79999998,71.71850000
3.83999998,76.20471000
3.87999998,85.19241000
3.91999998,103.15250000
3.95999998,121.12800000
3.99999998,139.10340000
4.03999998,161.56500000
4.07999998,175.03890000
4.11999997,179.52510000
4.15999997,179.52510000
4.19999997,166.05120000
4.23999997,143.58960000
4.27999997,116.64170000
4.31999997,71.71850000
4.35999997,17.80755000
4.39999997,-36.08813000
4.43999997,-98.97152000
4.47999997,-152.88250000
4.51999997,-202.29190000
4.55999997,-251.70140000
4.59999997,-292.13840000
4.63999997,-323.58770000
4.67999997,-337.06160000
4.71999997,-341.54790000
4.75999997,-337.06160000
4.79999997,-323.58770000
4.83999997,-296.62460000
4.87999997,-269.67680000
4.91999997,-238.22750000
4.95999997,-206.77810000
4.99999997,-170.84260000
5.03999997,-143.89480000
5.07999997,-116.94690000
5.11999997,-94.48530000
5.15999997,-81.01138000
5.19999997,-72.02368000
5.23999997,-72.02368000
5.27999997,-76.50990000
5.31999997,-85.49760000
5.35999997,-94.48530000
5.39999997,-103.45770000
5.43999997,-107.95920000
5.47999997,-112.44540000
5.51999997,-112.44540000
5.55999997,-107.95920000
5.59999997,-89.98383000
5.63999997,-72.02368000
5.67999997,-36.08813000
5.71999997,-4.63881300
5.75999996,40.26917000
5.79999996,85.19241000
5.83999996,134.60190000
5.87999996,184.02660000
5.91999996,233.43610000
5.95999996,291.83320000
5.99999996,336.75650000
6.03999996,368.20580000
6.07999996,404.14130000
6.11999996,426.60300000
6.15999996,426.60300000
6.19999996,431.08920000
6.23999996,408.62750000
6.27999996,372.69200000
6.31999996,336.75650000
6.35999996,287.34700000
6.39999996,233.43610000
6.43999996,179.52510000
6.47999996,125.61420000
6.51999996,80.70620000
6.55999996,35.78295000
6.59999996,-0.15259250
6.63999996,-27.10044000
6.67999996,-45.06058000
6.71999996,-54.04828000
6.75999996,-54.04828000
6.79999996,-49.56206000
6.83999996,-36.08813000
6.87999996,-27.10044000
6.91999996,-18.11273000
6.95999996,-18.11273000
6.99999996,-13.62651000
7.03999996,-18.11273000
7.07999996,-36.08813000
7.11999996,-54.04828000
7.15999996,-85.49760000
7.19999996,-116.94690000
7.23999996,-157.36870000
7.27999996,-197.80570000
7.31999996,-242.72890000
7.35999996,-283.15070000
7.39999996,-319.08630000
7.43999995,-350.53560000
7.47999995,-368.51100000
7.51999995,-377.48340000
7.55999995,-381.98490000
7.59999995,-372.99720000
7.63999995,-350.53560000
7.67999995,-323.58770000
7.71999995,-287.65220000
7.75999995,-242.72890000
7.79999995,-197.80570000
7.83999995,-148.38100000
7.87999995,-103.45770000
7.91999995,-58.54976000
7.95999995,-22.59896000
7.99999995,8.81984900
8.03999995,35.78295000
8.07999995,53.74309000
8.11999995,67.21701000
8.15999995,71.71850000
8.19999995,76.20471000
8.23999995,71.71850000
8.27999995,71.71850000
8.31999995,67.21701000
8.35999995,67.21701000
8.39999995,71.71850000
8.43999995,80.70620000
8.47999995,103.15250000
8.51999995,121.12800000
8.55999995,152.57730000
8.59999995,197.50050000
8.63999995,228.93460000
8.67999995,273.85780000
8.71999995,318.78110000
8.75999995,345.74420000
8.79999995,372.69200000
8.83999995,395.15370000
8.87999995,399.63990000
8.91999995,395.15370000
8.95999995,381.67970000
8.99999995,354.71660000
9.03999995,318.78110000
9.07999994,273.85780000
9.11999994,224.44840000
9.15999994,175.03890000
9.19999994,121.12800000
9.23999994,67.21701000
9.27999994,17.80755000
9.31999994,-27.10044000
9.35999994,-58.54976000
9.39999994,-81.01138000
9.43999994,-98.97152000
9.47999994,-112.44540000
9.51999994,-121.43310000
9.55999994,-121.43310000
9.59999994,-112.44540000
9.63999994,-107.95920000
9.67999994,-107.95920000
9.71999994,-103.45770000
9.75999994,-103.45770000
9.79999994,-107.95920000
9.83999994,-121.43310000
9.87999994,-134.90710000
9.91999994,-157.36870000
9.95999994,-184.33180000
9.99999994,-220.26730000
10.03999994,-274.16300000
10.07999994,-310.09860000
10.11999994,-323.58770000
10.15999994,-328.07390000
10.19999994,-341.54790000
10.23999994,-341.54790000
10.27999994,-323.58770000
10.31999994,-296.62460000
10.35999994,-269.67680000
10.39999994,-260.68910000
10.43999994,-247.21520000
10.47999994,-215.76590000
10.51999994,-166.35640000
10.55999994,-130.42080000
10.59999994,-94.48530000
10.63999994,-58.54976000
10.67999994,-9.12503300
10.71999993,35.78295000
10.75999993,71.71850000
10.79999993,89.67863000
10.83999993,107.65400000
10.87999993,125.61420000
10.91999993,139.10340000
10.95999993,143.58960000
10.99999993,139.10340000
11.03999993,139.10340000
11.07999993,139.10340000
11.11999993,143.58960000
11.15999993,143.58960000
11.19999993,152.57730000
11.23999993,161.56500000
11.27999993,184.02660000
11.31999993,210.97440000
11.35999993,233.43610000
11.39999993,251.39620000
11.43999993,269.37160000
11.47999993,282.84560000
11.51999993,300.82090000
11.55999993,305.30720000
11.59999993,305.30720000
11.63999993,300.82090000
11.67999993,296.31940000
11.71999993,287.34700000
11.75999993,269.37160000
11.79999993,246.91000000
11.83999993,215.46070000
11.87999993,179.52510000
11.91999993,134.60190000
11.95999993,89.67863000
11.99999993,44.75539000
12.03999993,-0.15259250
12.07999993,-31.58666000
12.11999993,-63.03598000
12.15999993,-89.98383000
12.19999993,-107.95920000
12.23999993,-125.91940000
12.27999993,-134.90710000
12.31999993,-143.89480000
12.35999992,-148.38100000
12.39999992,-161.87020000
12.43999992,-161.87020000
12.47999992,-166.35640000
12.51999992,-170.84260000
12.55999992,-175.34410000
12.59999992,-184.33180000
12.63999992,-193.30420000
12.67999992,-202.29190000
12.71999992,-215.76590000
12.75999992,-229.23980000
12.79999992,-242.72890000
12.83999992,-256.20290000
12.87999992,-265.19060000
12.91999992,-274.16300000
12.95999992,-274.16300000
12.99999992,-274.16300000
13.03999992,-269.67680000
13.07999992,-256.20290000
13.11999992,-238.22750000
13.15999992,-215.76590000
13.19999992,-188.81800000
13.23999992,-152.88250000
13.27999992,-116.94690000
13.31999992,-81.01138000
13.35999992,-40.57436000
13.39999992,-4.63881300
13.43999992,31.28147000
13.47999992,62.73079000
13.51999992,89.67863000
13.55999992,112.14030000
13.59999992,130.11560000
13.63999992,148.07580000
13.67999992,161.56500000
13.71999992,175.03890000
13.75999992,184.02660000
13.79999992,188.51280000
13.83999992,192.99900000
13.87999992,197.50050000
13.91999992,197.50050000
13.95999992,201.98670000
13.99999991,206.47300000
14.03999991,210.97440000
14.07999991,215.46070000
14.11999991,228.93460000
14.15999991,233.43610000
14.19999991,246.91000000
14.23999991,255.89770000
14.27999991,246.91000000
14.31999991,251.39620000
14.35999991,260.38390000
14.39999991,251.39620000
14.43999991,228.93460000
14.47999991,215.46070000
14.51999991,197.50050000
14.55999991,175.03890000
14.59999991,143.58960000
14.63999991,112.14030000
14.67999991,80.70620000
14.71999991,49.25687000
14.75999991,8.81984900
14.79999991,-22.59896000
14.83999991,-54.04828000
14.87999991,-85.49760000
14.91999991,-107.95920000
14.95999991,-130.42080000
14.99999991,-152.88250000
15.03999991,-166.35640000
15.07999991,-179.83030000
15.11999991,-188.81800000
15.15999991,-197.80570000
15.19999991,-197.80570000
15.23999991,-202.29190000
15.27999991,-206.77810000
15.31999991,-206.77810000
15.35999991,-211.27960000
15.39999991,-215.76590000
15.43999991,-215.76590000
15.47999991,-215.76590000
15.51999991,-220.26730000
15.55999991,-224.75350000
15.59999991,-229.23980000
15.63999990,-229.23980000
15.67999990,-224.75350000
15.71999990,-220.26730000
15.75999990,-215.76590000
15.79999990,-202.29190000
15.83999990,-188.81800000
15.87999990,-166.35640000
15.91999990,-148.38100000
15.95999990,-125.91940000
15.99999990,-94.48530000
16.03999990,-63.03598000
16.07999990,-36.08813000
16.11999990,-0.15259250
16.15999990,31.28147000
16.19999990,62.73079000
16.23999990,89.67863000
16.27999990,116.64170000
16.31999990,139.10340000
16.35999990,161.56500000
16.39999990,175.03890000
16.43999990,192.99900000
16.47999990,197.50050000
16.51999990,206.47300000
16.55999990,210.97440000
16.59999990,215.46070000
16.63999990,219.96210000
16.67999990,219.96210000
16.71999990,224.44840000
16.75999990,224.44840000
16.79999990,219.96210000
16.83999990,224.44840000
16.87999990,219.96210000
16.91999990,219.96210000
16.95999990,219.96210000
16.99999990,215.46070000
17.03999990,210.97440000
17.07999990,206.47300000
17.11999990,197.50050000
17.15999990,179.52510000
17.19999990,170.53740000
17.23999990,152.57730000
17.27999989,134.60190000
17.31999989,107.65400000
17.35999989,80.70620000
17.39999989,58.24457000
17.43999989,26.79525000
17.47999989,-4.63881300
17.51999989,-31.58666000
17.55999989,-63.03598000
17.59999989,-85.49760000
17.63999989,-112.44540000
17.67999989,-139.40860000
17.71999989,-157.36870000
17.75999989,-170.84260000
17.79999989,-188.81800000
17.83999989,-197.80570000
17.87999989,-206.77810000
17.91999989,-215.76590000
17.95999989,-215.76590000
17.99999989,-220.26730000
18.03999989,-220.26730000
18.07999989,-220.26730000
18.11999989,-220.26730000
18.15999989,-215.76590000
18.19999989,-215.76590000
18.23999989,-211.27960000
18.27999989,-206.77810000
18.31999989,-202.29190000
18.35999989,-197.80570000
18.39999989,-188.81800000
18.43999989,-179.83030000
18.47999989,-170.84260000
18.51999989,-157.36870000
18.55999989,-143.89480000
18.59999989,-125.91940000
18.63999989,-107.95920000
18.67999989,-85.49760000
18.71999989,-58.54976000
18.75999989,-36.08813000
18.79999989,-9.12503300
18.83999989,17.80755000
18.87999989,44.75539000
18.91999989,67.21701000
18.95999988,94.18011000
18.99999988,121.12800000
19.03999988,143.58960000
19.07999988,161.56500000
19.11999988,179.52510000
19.15999988,188.51280000
19.19999988,201.98670000
19.23999988,215.46070000
19.27999988,224.44840000
19.31999988,224.44840000
19.35999988,224.44840000
19.39999988,224.44840000
19.43999988,228.93460000
19.47999988,224.44840000
19.51999988,219.96210000
19.55999988,215.46070000
19.59999988,210.97440000
19.63999988,201.98670000
19.67999988,197.50050000
19.71999988,188.51280000
19.75999988,179.52510000
19.79999988,166.05120000
19.83999988,161.56500000
19.87999988,143.58960000
19.91999988,130.11560000
19.95999988,112.14030000
19.99999988,89.67863000
20.03999988,71.71850000
20.07999988,49.25687000
20.11999988,26.79525000
20.15999988,-0.15259250
20.19999988,-22.59896000
20.23999988,-45.06058000
20.27999988,-72.02368000
20.31999988,-94.48530000
20.35999988,-121.43310000
20.39999988,-139.40860000
20.43999988,-157.36870000
20.47999988,-175.34410000
20.51999988,-188.81800000
20.55999988,-202.29190000
20.59999987,-206.77810000
20.63999987,-215.76590000
20.67999987,-220.26730000
20.71999987,-224.75350000
20.75999987,-220.26730000
20.79999987,-220.26730000
20.83999987,-215.76590000
20.87999987,-211.27960000
20.91999987,-206.77810000
20.95999987,-197.80570000
20.99999987,-193.30420000
21.03999987,-179.83030000
21.07999987,-175.34410000
21.11999987,-161.87020000
21.15999987,-148.38100000
21.19999987,-134.90710000
21.23999987,-125.91940000
21.27999987,-107.95920000
21.31999987,-89.98383000
21.35999987,-72.02368000
21.39999987,-54.04828000
21.43999987,-31.58666000
21.47999987,-9.12503300
21.51999987,13.32133000
21.55999987,35.78295000
21.59999987,58.24457000
21.63999987,80.70620000
21.67999987,103.15250000
21.71999987,125.61420000
21.75999987,143.58960000
21.79999987,161.56500000
21.83999987,179.52510000
21.87999987,192.99900000
21.91999987,206.47300000
21.95999987,210.97440000
21.99999987,219.96210000
22.03999987,224.44840000
22.07999987,224.44840000
22.11999987,224.44840000
22.15999987,224.44840000
22.19999987,219.96210000
22.23999986,210.97440000
22.27999986,201.98670000
22.31999986,197.50050000
22.35999986,188.51280000
22.39999986,179.52510000
22.43999986,166.05120000
22.47999986,152.57730000
22.51999986,143.58960000
22.55999986,125.61420000
22.59999986,112.14030000
22.63999986,94.18011000
22.67999986,76.20471000
22.71999986,58.24457000
22.75999986,40.26917000
22.79999986,17.80755000
22.83999986,-0.15259250
22.87999986,-22.59896000
22.91999986,-40.57436000
22.95999986,-63.03598000
22.99999986,-85.49760000
23.03999986,-107.95920000
23.07999986,-125.91940000
23.11999986,-143.89480000
23.15999986,-161.87020000
23.19999986,-175.34410000
23.23999986,-184.33180000
23.27999986,-197.80570000
23.31999986,-206.77810000
23.35999986,-215.76590000
23.39999986,-215.76590000
23.43999986,-215.76590000
23.47999986,-215.76590000
23.51999986,-215.76590000
23.55999986,-211.27960000
23.59999986,-202.29190000
23.63999986,-197.80570000
23.67999986,-184.33180000
23.71999986,-175.34410000
23.75999986,-161.87020000
23.79999986,-148.38100000
23.83999986,-139.40860000
23.87999985,-125.91940000
23.91999985,-107.95920000
23.95999985,-94.48530000
23.99999985,-72.02368000
24.03999985,-58.54976000
24.07999985,-36.08813000
24.11999985,-27.10044000
24.15999985,-9.12503300
24.19999985,17.80755000
24.23999985,44.75539000
24.27999985,58.24457000
24.31999985,76.20471000
24.35999985,94.18011000
24.39999985,121.12800000
24.43999985,134.60190000
24.47999985,148.07580000
24.51999985,166.05120000
24.55999985,179.52510000
24.59999985,192.99900000
24.63999985,197.50050000
24.67999985,210.97440000
24.71999985,210.97440000
24.75999985,215.46070000
24.79999985,219.96210000
24.83999985,219.96210000
24.87999985,210.97440000
24.91999985,206.47300000
24.95999985,197.50050000
24.99999985,192.99900000
25.03999985,179.52510000
25.07999985,170.53740000
25.11999985,157.06350000
25.15999985,143.58960000
25.19999985,130.11560000
25.23999985,116.64170000
25.27999985,98.66634000
25.31999985,80.70620000
25.35999985,67.21701000
25.39999985,49.25687000
25.43999985,31.28147000
25.47999985,13.32133000
25.51999984,-4.63881300
25.55999984,-22.59896000
25.59999984,-45.06058000
25.63999984,-63.03598000
25.67999984,-81.01138000
25.71999984,-98.97152000
25.75999984,-116.94690000
25.79999984,-134.90710000
25.83999984,-148.38100000
25.87999984,-161.87020000
25.91999984,-175.34410000
25.95999984,-184.33180000
25.99999984,-197.80570000
26.03999984,-202.29190000
26.07999984,-206.77810000
26.11999984,-211.27960000
26.15999984,-206.77810000
26.19999984,-206.77810000
26.23999984,-202.29190000
26.27999984,-197.80570000
26.31999984,-188.81800000
26.35999984,-179.83030000
26.39999984,-166.35640000
26.43999984,-152.88250000
26.47999984,-143.89480000
26.51999984,-130.42080000
26.55999984,-112.44540000
26.59999984,-98.97152000
26.63999984,-81.01138000
26.67999984,-67.52220000
26.71999984,-54.04828000
26.75999984,-31.58666000
26.79999984,-13.62651000
26.83999984,4.33362800
26.87999984,22.29377000
26.91999984,40.26917000
26.95999984,58.24457000
26.99999984,76.20471000
27.03999984,94.18011000
27.07999984,112.14030000
27.11999984,125.61420000
27.15999983,143.58960000
27.19999983,157.06350000
27.23999983,170.53740000
27.27999983,184.02660000
27.31999983,192.99900000
27.35999983,197.50050000
27.39999983,201.98670000
27.43999983,206.47300000
27.47999983,206.47300000
27.51999983,206.47300000
27.55999983,206.47300000
27.59999983,197.50050000
27.63999983,192.99900000
27.67999983,184.02660000
27.71999983,175.03890000
27.75999983,161.56500000
27.79999983,148.07580000
27.83999983,139.10340000
27.87999983,125.61420000
27.91999983,107.65400000
27.95999983,89.67863000
27.99999983,76.20471000
28.03999983,58.24457000
28.07999983,40.26917000
28.11999983,22.29377000
28.15999983,4.33362800
28.19999983,-13.62651000
28.23999983,-27.10044000
28.27999983,-45.06058000
28.31999983,-63.03598000
28.35999983,-81.01138000
28.39999983,-94.48530000
28.43999983,-112.44540000
28.47999983,-125.91940000
28.51999983,-143.89480000
28.55999983,-152.88250000
28.59999983,-161.87020000
28.63999983,-175.34410000
28.67999983,-184.33180000
28.71999983,-188.81800000
28.75999983,-197.80570000
28.79999982,-197.80570000
28.83999982,-197.80570000
28.87999982,-197.80570000
28.91999982,-193.30420000
28.95999982,-188.81800000
28.99999982,-184.33180000
29.03999982,-175.34410000
29.07999982,-161.87020000
29.11999982,-143.89480000
29.15999982,-134.90710000
29.19999982,-125.91940000
29.23999982,-107.95920000
29.27999982,-94.48530000
29.31999982,-76.50990000
29.35999982,-58.54976000
29.39999982,-40.57436000
29.43999982,-22.59896000
29.47999982,-9.12503300
29.51999982,8.81984900
29.55999982,26.79525000
29.59999982,44.75539000
29.63999982,58.24457000
29.67999982,76.20471000
29.71999982,89.67863000
29.75999982,107.65400000
29.79999982,121.12800000
29.83999982,134.60190000
29.87999982,148.07580000
29.91999982,157.06350000
29.95999982,170.53740000
29.99999982,179.52510000
30.03999982,184.02660000
30.07999982,192.99900000
30.11999982,192.99900000
30.15999982,197.50050000
30.19999982,197.50050000
30.23999982,192.99900000
30.27999982,192.99900000
30.31999982,184.02660000
30.35999982,179.52510000
30.39999982,166.05120000
30.43999982,157.06350000
30.47999981,143.58960000
30.51999981,130.11560000
30.55999981,116.64170000
30.59999981,103.15250000
30.63999981,85.19241000
30.67999981,71.71850000
30.71999981,53.74309000
30.75999981,35.78295000
30.79999981,17.80755000
30.83999981,-0.15259250
30.87999981,-18.11273000
