Time	Channel A
(us)	(mV)

0.00000000	71.87719000
0.04000000	86.25141000
0.08000000	97.03055000
0.12000000	102.42620000
0.16000000	113.20540000
0.20000000	111.41090000
0.24000000	104.22070000
0.28000000	98.83114000
0.32000000	98.83114000
0.36000000	93.44157000
0.40000000	86.25141000
0.44000000	79.06125000
0.48000000	71.87719000
0.52000000	70.07660000
0.56000000	64.68703000
0.60000000	57.50298000
0.64000000	53.90789000
0.68000000	55.70238000
0.72000000	48.51222000
0.76000000	37.73308000
0.80000000	19.76379000
0.83999999	-5.38956800
0.87999999	-35.93859000
0.91999999	-70.07660000
0.95999999	-104.22070000
0.99999999	-120.39550000
1.03999999	-118.59490000
1.07999999	-109.61030000
1.11999999	-100.62560000
1.15999999	-86.25141000
1.19999999	-75.47227000
1.23999999	-64.68703000
1.27999999	-53.90789000
1.31999999	-44.92325000
1.35999999	-39.52757000
1.39999999	-37.73308000
1.43999999	-39.52757000
1.47999999	-44.92325000
1.51999999	-50.31281000
1.55999999	-57.50298000
1.59999999	-61.09195000
1.63999999	-59.29746000
1.67999999	-53.90789000
1.71999999	-43.12265000
1.75999999	-34.13800000
1.79999999	-17.96930000
1.83999999	-7.18405700
1.87999999	5.38956800
1.91999999	14.37422000
1.95999999	19.76379000
1.99999999	25.15336000
2.03999999	28.74844000
2.07999999	37.73308000
2.11999999	46.71774000
2.15999999	57.50298000
2.19999999	70.07660000
2.23999999	80.86184000
2.27999999	86.25141000
2.31999999	84.45692000
2.35999999	79.06125000
2.39999999	77.26676000
2.43999999	71.87719000
2.47999998	68.28211000
2.51999998	64.68703000
2.55999998	59.29746000
2.59999998	55.70238000
2.63999998	50.31281000
2.67999998	46.71774000
2.71999998	48.51222000
2.75999998	59.29746000
2.79999998	79.06125000
2.83999998	84.45692000
2.87999998	73.67168000
2.91999998	57.50298000
2.95999998	50.31281000
2.99999998	35.93859000
3.03999998	14.37422000
3.07999998	-8.98464900
3.11999998	-16.16870000
3.15999998	-5.38956800
3.19999998	12.57363000
3.23999998	14.37422000
3.27999998	14.37422000
3.31999998	19.76379000
3.35999998	28.74844000
3.39999998	28.74844000
3.43999998	19.76379000
3.47999998	5.38956800
3.51999998	1.79448800
3.55999998	5.38956800
3.59999998	3.58897700
3.63999998	-3.58897700
3.67999998	-12.57363000
3.71999998	-14.37422000
3.75999998	-14.37422000
3.79999998	-16.16870000
3.83999998	-23.35887000
3.87999998	-26.95395000
3.91999998	-28.74844000
3.95999998	-26.95395000
3.99999998	-28.74844000
4.03999998	-32.34352000
4.07999998	-35.93859000
4.11999997	-35.93859000
4.15999997	-32.34352000
4.19999997	-26.95395000
4.23999997	-21.55827000
4.27999997	-16.16870000
4.31999997	-8.98464900
4.35999997	0.00000000
4.39999997	3.58897700
4.43999997	1.79448800
4.47999997	0.00000000
4.51999997	-3.58897700
4.55999997	-5.38956800
4.59999997	-3.58897700
4.63999997	-1.79448800
4.67999997	1.79448800
4.71999997	7.18405700
4.75999997	14.37422000
4.79999997	16.16870000
4.83999997	19.76379000
4.87999997	17.96930000
4.91999997	17.96930000
4.95999997	16.16870000
4.99999997	16.16870000
5.03999997	16.16870000
5.07999997	17.96930000
5.11999997	21.55827000
5.15999997	26.95395000
5.19999997	34.13800000
5.23999997	35.93859000
5.27999997	39.52757000
5.31999997	41.32816000
5.35999997	41.32816000
5.39999997	37.73308000
5.43999997	35.93859000
5.47999997	34.13800000
5.51999997	32.34352000
5.55999997	28.74844000
5.59999997	16.16870000
5.63999997	25.15336000
5.67999997	26.95395000
5.71999997	19.76379000
5.75999996	14.37422000
5.79999996	10.77914000
5.83999996	14.37422000
5.87999996	14.37422000
5.91999996	10.77914000
5.95999996	7.18405700
5.99999996	5.38956800
6.03999996	0.00000000
6.07999996	-3.58897700
6.11999996	-5.38956800
6.15999996	-7.18405700
6.19999996	-8.98464900
6.23999996	-8.98464900
6.27999996	-7.18405700
6.31999996	-7.18405700
6.35999996	-8.98464900
6.39999996	-10.77914000
6.43999996	-14.37422000
6.47999996	-17.96930000
6.51999996	-21.55827000
6.55999996	-25.15336000
6.59999996	-26.95395000
6.63999996	-28.74844000
6.67999996	-26.95395000
6.71999996	-26.95395000
6.75999996	-23.35887000
6.79999996	-21.55827000
6.83999996	-21.55827000
6.87999996	-19.76379000
6.91999996	-17.96930000
6.95999996	-17.96930000
6.99999996	-16.16870000
7.03999996	-14.37422000
7.07999996	-10.77914000
7.11999996	-10.77914000
7.15999996	-7.18405700
7.19999996	-7.18405700
7.23999996	-3.58897700
7.27999996	-1.79448800
7.31999996	0.00000000
7.35999996	1.79448800
7.39999996	3.58897700
7.43999995	5.38956800
7.47999995	7.18405700
7.51999995	7.18405700
7.55999995	8.98464900
7.59999995	10.77914000
7.63999995	10.77914000
7.67999995	12.57363000
7.71999995	14.37422000
7.75999995	16.16870000
7.79999995	16.16870000
7.83999995	17.96930000
7.87999995	19.76379000
7.91999995	19.76379000
7.95999995	21.55827000
7.99999995	21.55827000
8.03999995	21.55827000
8.07999995	21.55827000
8.11999995	21.55827000
8.15999995	19.76379000
8.19999995	19.76379000
8.23999995	17.96930000
8.27999995	17.96930000
8.31999995	16.16870000
8.35999995	14.37422000
8.39999995	12.57363000
8.43999995	10.77914000
8.47999995	8.98464900
8.51999995	5.38956800
8.55999995	3.58897700
8.59999995	1.79448800
8.63999995	1.79448800
8.67999995	0.00000000
8.71999995	0.00000000
8.75999995	-3.58897700
8.79999995	-3.58897700
8.83999995	-7.18405700
8.87999995	-7.18405700
8.91999995	-7.18405700
8.95999995	-8.98464900
8.99999995	-14.37422000
9.03999995	-14.37422000
9.07999994	-14.37422000
9.11999994	-14.37422000
9.15999994	-17.96930000
9.19999994	-17.96930000
9.23999994	-16.16870000
9.27999994	-16.16870000
9.31999994	-19.76379000
9.35999994	-21.55827000
9.39999994	-19.76379000
9.43999994	-17.96930000
9.47999994	-17.96930000
9.51999994	-19.76379000
9.55999994	-17.96930000
9.59999994	-17.96930000
9.63999994	-16.16870000
9.67999994	-14.37422000
9.71999994	-14.37422000
9.75999994	-12.57363000
9.79999994	-10.77914000
9.83999994	-8.98464900
9.87999994	-7.18405700
9.91999994	-7.18405700
9.95999994	-5.38956800
9.99999994	-3.58897700
10.03999994	0.00000000
10.07999994	0.00000000
10.11999994	0.00000000
10.15999994	3.58897700
10.19999994	5.38956800
10.23999994	5.38956800
10.27999994	7.18405700
10.31999994	7.18405700
10.35999994	8.98464900
10.39999994	10.77914000
10.43999994	8.98464900
10.47999994	7.18405700
10.51999994	10.77914000
10.55999994	14.37422000
10.59999994	14.37422000
10.63999994	14.37422000
10.67999994	12.57363000
10.71999993	14.37422000
10.75999993	14.37422000
10.79999993	14.37422000
10.83999993	14.37422000
10.87999993	12.57363000
10.91999993	12.57363000
10.95999993	10.77914000
10.99999993	10.77914000
11.03999993	10.77914000
11.07999993	7.18405700
11.11999993	7.18405700
11.15999993	5.38956800
11.19999993	5.38956800
11.23999993	1.79448800
11.27999993	0.00000000
11.31999993	0.00000000
11.35999993	-1.79448800
11.39999993	-3.58897700
11.43999993	-3.58897700
11.47999993	-5.38956800
11.51999993	-7.18405700
11.55999993	-8.98464900
11.59999993	-8.98464900
11.63999993	-10.77914000
11.67999993	-10.77914000
11.71999993	-10.77914000
11.75999993	-12.57363000
11.79999993	-12.57363000
11.83999993	-14.37422000
11.87999993	-14.37422000
11.91999993	-14.37422000
11.95999993	-14.37422000
11.99999993	-14.37422000
12.03999993	-14.37422000
12.07999993	-16.16870000
12.11999993	-14.37422000
12.15999993	-14.37422000
12.19999993	-14.37422000
12.23999993	-14.37422000
12.27999993	-14.37422000
12.31999993	-12.57363000
12.35999992	-12.57363000
12.39999992	-10.77914000
12.43999992	-10.77914000
12.47999992	-8.98464900
12.51999992	-8.98464900
12.55999992	-7.18405700
12.59999992	-7.18405700
12.63999992	-3.58897700
12.67999992	-3.58897700
12.71999992	-1.79448800
12.75999992	-1.79448800
12.79999992	0.00000000
12.83999992	0.00000000
12.87999992	1.79448800
12.91999992	3.58897700
12.95999992	3.58897700
12.99999992	5.38956800
13.03999992	5.38956800
13.07999992	5.38956800
13.11999992	7.18405700
13.15999992	7.18405700
13.19999992	7.18405700
13.23999992	7.18405700
13.27999992	7.18405700
13.31999992	8.98464900
13.35999992	8.98464900
13.39999992	7.18405700
13.43999992	7.18405700
13.47999992	7.18405700
13.51999992	7.18405700
13.55999992	7.18405700
13.59999992	7.18405700
13.63999992	7.18405700
13.67999992	7.18405700
13.71999992	5.38956800
13.75999992	5.38956800
13.79999992	5.38956800
13.83999992	5.38956800
13.87999992	3.58897700
13.91999992	1.79448800
13.95999992	0.00000000
13.99999991	-1.79448800
14.03999991	-1.79448800
14.07999991	-1.79448800
14.11999991	-3.58897700
14.15999991	-5.38956800
14.19999991	-7.18405700
14.23999991	-7.18405700
14.27999991	-7.18405700
14.31999991	-8.98464900
14.35999991	-8.98464900
14.39999991	-8.98464900
14.43999991	-10.77914000
14.47999991	-10.77914000
14.51999991	-12.57363000
14.55999991	-12.57363000
14.59999991	-12.57363000
14.63999991	-12.57363000
14.67999991	-12.57363000
14.71999991	-12.57363000
14.75999991	-12.57363000
14.79999991	-12.57363000
14.83999991	-10.77914000
14.87999991	-10.77914000
14.91999991	-12.57363000
14.95999991	-10.77914000
14.99999991	-8.98464900
15.03999991	-10.77914000
15.07999991	-8.98464900
15.11999991	-8.98464900
15.15999991	-7.18405700
15.19999991	-7.18405700
15.23999991	-7.18405700
15.27999991	-5.38956800
15.31999991	-5.38956800
15.35999991	-3.58897700
15.39999991	0.00000000
15.43999991	-10.77914000
15.47999991	-3.58897700
15.51999991	5.38956800
15.55999991	5.38956800
15.59999991	0.00000000
15.63999990	0.00000000
15.67999990	1.79448800
15.71999990	7.18405700
15.75999990	1.79448800
15.79999990	3.58897700
15.83999990	5.38956800
15.87999990	5.38956800
15.91999990	5.38956800
15.95999990	5.38956800
15.99999990	5.38956800
16.03999990	5.38956800
16.07999990	5.38956800
16.11999990	5.38956800
16.15999990	7.18405700
16.19999990	5.38956800
16.23999990	3.58897700
16.27999990	5.38956800
16.31999990	3.58897700
16.35999990	3.58897700
16.39999990	3.58897700
16.43999990	3.58897700
16.47999990	1.79448800
16.51999990	0.00000000
16.55999990	0.00000000
16.59999990	0.00000000
16.63999990	0.00000000
16.67999990	0.00000000
16.71999990	-1.79448800
16.75999990	-1.79448800
16.79999990	-1.79448800
16.83999990	-3.58897700
16.87999990	-5.38956800
16.91999990	-5.38956800
16.95999990	-7.18405700
16.99999990	-7.18405700
17.03999990	-7.18405700
17.07999990	-7.18405700
17.11999990	-8.98464900
17.15999990	-8.98464900
17.19999990	-8.98464900
17.23999990	-8.98464900
17.27999989	-10.77914000
17.31999989	-8.98464900
17.35999989	-8.98464900
17.39999989	-10.77914000
17.43999989	-10.77914000
17.47999989	-8.98464900
17.51999989	-8.98464900
17.55999989	-10.77914000
17.59999989	-8.98464900
17.63999989	-8.98464900
17.67999989	-8.98464900
17.71999989	-8.98464900
17.75999989	-8.98464900
17.79999989	-7.18405700
17.83999989	-7.18405700
17.87999989	-5.38956800
17.91999989	-5.38956800
17.95999989	-5.38956800
17.99999989	-3.58897700
18.03999989	-3.58897700
18.07999989	-3.58897700
18.11999989	-1.79448800
18.15999989	-1.79448800
18.19999989	-1.79448800
18.23999989	0.00000000
18.27999989	0.00000000
18.31999989	0.00000000
18.35999989	0.00000000
18.39999989	1.79448800
18.43999989	3.58897700
18.47999989	1.79448800
18.51999989	1.79448800
18.55999989	5.38956800
18.59999989	3.58897700
18.63999989	3.58897700
18.67999989	5.38956800
18.71999989	5.38956800
18.75999989	3.58897700
18.79999989	3.58897700
18.83999989	5.38956800
18.87999989	5.38956800
18.91999989	1.79448800
18.95999988	1.79448800
18.99999988	3.58897700
19.03999988	3.58897700
19.07999988	0.00000000
19.11999988	0.00000000
19.15999988	1.79448800
19.19999988	0.00000000
19.23999988	0.00000000
19.27999988	0.00000000
19.31999988	0.00000000
19.35999988	-1.79448800
19.39999988	-1.79448800
19.43999988	-1.79448800
19.47999988	-3.58897700
19.51999988	-3.58897700
19.55999988	-3.58897700
19.59999988	-3.58897700
19.63999988	-5.38956800
19.67999988	-7.18405700
19.71999988	-7.18405700
19.75999988	-7.18405700
19.79999988	-7.18405700
19.83999988	-7.18405700
19.87999988	-7.18405700
19.91999988	-7.18405700
19.95999988	-7.18405700
19.99999988	-8.98464900
20.03999988	-8.98464900
20.07999988	-8.98464900
20.11999988	-8.98464900
20.15999988	-7.18405700
20.19999988	-7.18405700
20.23999988	-8.98464900
20.27999988	-7.18405700
20.31999988	-12.57363000
20.35999988	-8.98464900
20.39999988	-5.38956800
20.43999988	-3.58897700
20.47999988	-5.38956800
20.51999988	-7.18405700
20.55999988	-7.18405700
20.59999987	-5.38956800
20.63999987	-3.58897700
20.67999987	-3.58897700
20.71999987	-3.58897700
20.75999987	-3.58897700
20.79999987	-1.79448800
20.83999987	-1.79448800
20.87999987	-1.79448800
20.91999987	-1.79448800
20.95999987	-1.79448800
20.99999987	0.00000000
21.03999987	0.00000000
21.07999987	0.00000000
21.11999987	0.00000000
21.15999987	1.79448800
21.19999987	0.00000000
21.23999987	1.79448800
21.27999987	1.79448800
21.31999987	1.79448800
21.35999987	1.79448800
21.39999987	1.79448800
21.43999987	1.79448800
21.47999987	1.79448800
21.51999987	1.79448800
21.55999987	1.79448800
21.59999987	1.79448800
21.63999987	1.79448800
21.67999987	1.79448800
21.71999987	1.79448800
21.75999987	0.00000000
21.79999987	0.00000000
21.83999987	0.00000000
21.87999987	0.00000000
21.91999987	0.00000000
21.95999987	0.00000000
21.99999987	0.00000000
22.03999987	-1.79448800
22.07999987	-1.79448800
22.11999987	-1.79448800
22.15999987	-1.79448800
22.19999987	-3.58897700
22.23999986	-3.58897700
22.27999986	-3.58897700
22.31999986	-3.58897700
22.35999986	-5.38956800
22.39999986	-5.38956800
22.43999986	-5.38956800
22.47999986	-5.38956800
22.51999986	-7.18405700
22.55999986	-7.18405700
22.59999986	-7.18405700
22.63999986	-7.18405700
22.67999986	-7.18405700
22.71999986	-7.18405700
22.75999986	-7.18405700
22.79999986	-7.18405700
22.83999986	-7.18405700
22.87999986	-7.18405700
22.91999986	-7.18405700
22.95999986	-7.18405700
22.99999986	-7.18405700
23.03999986	-7.18405700
23.07999986	-7.18405700
23.11999986	-5.38956800
23.15999986	-5.38956800
23.19999986	-5.38956800
23.23999986	-5.38956800
23.27999986	-3.58897700
23.31999986	-3.58897700
23.35999986	-3.58897700
23.39999986	-3.58897700
23.43999986	-1.79448800
23.47999986	-1.79448800
23.51999986	0.00000000
23.55999986	0.00000000
23.59999986	0.00000000
23.63999986	0.00000000
23.67999986	-1.79448800
23.71999986	0.00000000
23.75999986	-1.79448800
23.79999986	0.00000000
23.83999986	1.79448800
23.87999985	0.00000000
23.91999985	0.00000000
23.95999985	0.00000000
23.99999985	1.79448800
24.03999985	1.79448800
24.07999985	0.00000000
24.11999985	0.00000000
24.15999985	0.00000000
24.19999985	1.79448800
24.23999985	1.79448800
24.27999985	0.00000000
24.31999985	1.79448800
24.35999985	0.00000000
24.39999985	0.00000000
24.43999985	0.00000000
24.47999985	0.00000000
24.51999985	0.00000000
24.55999985	0.00000000
24.59999985	0.00000000
24.63999985	0.00000000
24.67999985	0.00000000
24.71999985	-1.79448800
24.75999985	-1.79448800
24.79999985	-1.79448800
24.83999985	-1.79448800
24.87999985	-3.58897700
24.91999985	-3.58897700
24.95999985	-3.58897700
24.99999985	-3.58897700
25.03999985	-3.58897700
25.07999985	-3.58897700
25.11999985	-5.38956800
25.15999985	-5.38956800
25.19999985	-5.38956800
25.23999985	-1.79448800
25.27999985	-12.57363000
25.31999985	-8.98464900
25.35999985	0.00000000
25.39999985	1.79448800
25.43999985	-7.18405700
25.47999985	-8.98464900
25.51999984	-7.18405700
25.55999984	-1.79448800
25.59999984	-5.38956800
25.63999984	-7.18405700
25.67999984	-5.38956800
25.71999984	-3.58897700
25.75999984	-5.38956800
25.79999984	-5.38956800
25.83999984	-3.58897700
25.87999984	-5.38956800
25.91999984	-3.58897700
25.95999984	-1.79448800
25.99999984	3.58897700
26.03999984	10.77914000
26.07999984	16.16870000
26.11999984	17.96930000
26.15999984	14.37422000
26.19999984	5.38956800
26.23999984	-5.38956800
26.27999984	-14.37422000
26.31999984	-25.15336000
26.35999984	-35.93859000
26.39999984	-37.73308000
26.43999984	-28.74844000
26.47999984	-16.16870000
26.51999984	-7.18405700
26.55999984	1.79448800
26.59999984	7.18405700
26.63999984	14.37422000
26.67999984	14.37422000
26.71999984	14.37422000
26.75999984	10.77914000
26.79999984	10.77914000
26.83999984	10.77914000
26.87999984	12.57363000
26.91999984	8.98464900
26.95999984	5.38956800
26.99999984	3.58897700
27.03999984	3.58897700
27.07999984	3.58897700
27.11999984	1.79448800
27.15999983	0.00000000
27.19999983	0.00000000
27.23999983	-3.58897700
27.27999983	-3.58897700
27.31999983	-8.98464900
27.35999983	-10.77914000
27.39999983	-12.57363000
27.43999983	-12.57363000
27.47999983	-10.77914000
27.51999983	-7.18405700
27.55999983	-3.58897700
27.59999983	1.79448800
27.63999983	3.58897700
27.67999983	7.18405700
27.71999983	7.18405700
27.75999983	5.38956800
27.79999983	0.00000000
27.83999983	-3.58897700
27.87999983	-5.38956800
27.91999983	-7.18405700
27.95999983	-7.18405700
27.99999983	-5.38956800
28.03999983	-3.58897700
28.07999983	-3.58897700
28.11999983	-3.58897700
28.15999983	-5.38956800
28.19999983	-7.18405700
28.23999983	-8.98464900
28.27999983	-10.77914000
28.31999983	-10.77914000
28.35999983	-8.98464900
28.39999983	-10.77914000
28.43999983	-8.98464900
28.47999983	-3.58897700
28.51999983	0.00000000
28.55999983	0.00000000
28.59999983	0.00000000
28.63999983	0.00000000
28.67999983	1.79448800
28.71999983	1.79448800
28.75999983	0.00000000
28.79999982	0.00000000
28.83999982	0.00000000
28.87999982	0.00000000
28.91999982	-1.79448800
28.95999982	-1.79448800
28.99999982	-1.79448800
29.03999982	-1.79448800
29.07999982	-1.79448800
29.11999982	-1.79448800
29.15999982	-1.79448800
29.19999982	-1.79448800
29.23999982	0.00000000
29.27999982	0.00000000
29.31999982	0.00000000
29.35999982	-1.79448800
29.39999982	-1.79448800
29.43999982	-1.79448800
29.47999982	0.00000000
29.51999982	0.00000000
29.55999982	3.58897700
29.59999982	3.58897700
29.63999982	5.38956800
29.67999982	3.58897700
29.71999982	3.58897700
29.75999982	1.79448800
29.79999982	0.00000000
29.83999982	-1.79448800
29.87999982	-1.79448800
29.91999982	-1.79448800
29.95999982	-3.58897700
29.99999982	-1.79448800
30.03999982	-1.79448800
30.07999982	-1.79448800
30.11999982	-1.79448800
30.15999982	-7.18405700
30.19999982	-3.58897700
30.23999982	-1.79448800
30.27999982	0.00000000
30.31999982	-3.58897700
30.35999982	-3.58897700
30.39999982	-1.79448800
30.43999982	-1.79448800
30.47999981	-1.79448800
30.51999981	-1.79448800
30.55999981	-1.79448800
30.59999981	-1.79448800
30.63999981	-1.79448800
30.67999981	-1.79448800
30.71999981	-1.79448800
30.75999981	-3.58897700
30.79999981	-3.58897700
30.83999981	-5.38956800
30.87999981	-3.58897700
30.91999981	-5.38956800
30.95999981	-5.38956800
30.99999981	-5.38956800
31.03999981	-5.38956800
31.07999981	-5.38956800
31.11999981	-3.58897700
31.15999981	-3.58897700
31.19999981	-3.58897700
31.23999981	-3.58897700
31.27999981	-1.79448800
31.31999981	-1.79448800
31.35999981	-1.79448800
31.39999981	-1.79448800
31.43999981	-1.79448800
31.47999981	-1.79448800
31.51999981	0.00000000
31.55999981	0.00000000
31.59999981	0.00000000
31.63999981	0.00000000
31.67999981	0.00000000
31.71999981	0.00000000
31.75999981	0.00000000
31.79999981	0.00000000
31.83999981	-1.79448800
31.87999981	-1.79448800
31.91999981	-1.79448800
31.95999981	-1.79448800
31.99999981	0.00000000
32.03999981	0.00000000
32.07999981	0.00000000
32.11999980	0.00000000
32.15999980	0.00000000
32.19999980	0.00000000
32.23999980	0.00000000
32.27999980	0.00000000
32.31999980	0.00000000
32.35999980	0.00000000
32.39999980	0.00000000
32.43999980	0.00000000
32.47999980	0.00000000
