Time	Channel A
(us)	(mV)

0.00000000	139.10340000
0.04000000	175.03890000
0.08000000	210.97440000
0.12000000	242.42380000
0.16000000	251.39620000
0.20000000	255.89770000
0.24000000	255.89770000
0.28000000	269.37160000
0.32000000	260.38390000
0.36000000	251.39620000
0.40000000	260.38390000
0.44000000	246.91000000
0.48000000	242.42380000
0.52000000	237.92230000
0.56000000	228.93460000
0.60000000	224.44840000
0.64000000	224.44840000
0.68000000	215.46070000
0.72000000	206.47300000
0.76000000	188.51280000
0.80000000	170.53740000
0.83999999	143.58960000
0.87999999	116.64170000
0.91999999	85.19241000
0.95999999	49.25687000
0.99999999	-0.15259250
1.03999999	-54.04828000
1.07999999	-112.44540000
1.11999999	-161.87020000
1.15999999	-215.76590000
1.19999999	-215.76590000
1.23999999	-211.27960000
1.27999999	-179.83030000
1.31999999	-175.34410000
1.35999999	-161.87020000
1.39999999	-161.87020000
1.43999999	-148.38100000
1.47999999	-143.89480000
1.51999999	-130.42080000
1.55999999	-121.43310000
1.59999999	-112.44540000
1.63999999	-112.44540000
1.67999999	-112.44540000
1.71999999	-116.94690000
1.75999999	-116.94690000
1.79999999	-116.94690000
1.83999999	-112.44540000
1.87999999	-98.97152000
1.91999999	-81.01138000
1.95999999	-63.03598000
1.99999999	-45.06058000
2.03999999	-27.10044000
2.07999999	-4.63881300
2.11999999	13.32133000
2.15999999	35.78295000
2.19999999	62.73079000
2.23999999	80.70620000
2.27999999	103.15250000
2.31999999	121.12800000
2.35999999	143.58960000
2.39999999	170.53740000
2.43999999	197.50050000
2.47999998	219.96210000
2.51999998	228.93460000
2.55999998	233.43610000
2.59999998	246.91000000
2.63999998	246.91000000
2.67999998	233.43610000
2.71999998	246.91000000
2.75999998	233.43610000
2.79999998	219.96210000
2.83999998	210.97440000
2.87999998	197.50050000
2.91999998	179.52510000
2.95999998	175.03890000
2.99999998	157.06350000
3.03999998	143.58960000
3.07999998	130.11560000
3.11999998	112.14030000
3.15999998	80.70620000
3.19999998	44.75539000
3.23999998	-9.12503300
3.27999998	-67.52220000
3.31999998	-130.42080000
3.35999998	-175.34410000
3.39999998	-224.75350000
3.43999998	-233.74130000
3.47999998	-220.26730000
3.51999998	-197.80570000
3.55999998	-184.33180000
3.59999998	-175.34410000
3.63999998	-161.87020000
3.67999998	-152.88250000
3.71999998	-139.40860000
3.75999998	-130.42080000
3.79999998	-121.43310000
3.83999998	-112.44540000
3.87999998	-116.94690000
3.91999998	-121.43310000
3.95999998	-125.91940000
3.99999998	-125.91940000
4.03999998	-125.91940000
4.07999998	-116.94690000
4.11999997	-103.45770000
4.15999997	-85.49760000
4.19999997	-67.52220000
4.23999997	-45.06058000
4.27999997	-22.59896000
4.31999997	-0.15259250
4.35999997	26.79525000
4.39999997	49.25687000
4.43999997	76.20471000
4.47999997	107.65400000
4.51999997	130.11560000
4.55999997	152.57730000
4.59999997	179.52510000
4.63999997	192.99900000
4.67999997	197.50050000
4.71999997	197.50050000
4.75999997	184.02660000
4.79999997	179.52510000
4.83999997	170.53740000
4.87999997	161.56500000
4.91999997	152.57730000
4.95999997	152.57730000
4.99999997	143.58960000
5.03999997	143.58960000
5.07999997	139.10340000
5.11999997	130.11560000
5.15999997	130.11560000
5.19999997	130.11560000
5.23999997	134.60190000
5.27999997	134.60190000
5.31999997	130.11560000
5.35999997	125.61420000
5.39999997	116.64170000
5.43999997	107.65400000
5.47999997	103.15250000
5.51999997	89.67863000
5.55999997	85.19241000
5.59999997	76.20471000
5.63999997	67.21701000
5.67999997	58.24457000
5.71999997	44.75539000
5.75999996	35.78295000
5.79999996	26.79525000
5.83999996	13.32133000
5.87999996	4.33362800
5.91999996	-4.63881300
5.95999996	-18.11273000
5.99999996	-22.59896000
6.03999996	-31.58666000
6.07999996	-36.08813000
6.11999996	-36.08813000
6.15999996	-36.08813000
6.19999996	-40.57436000
6.23999996	-45.06058000
6.27999996	-49.56206000
6.31999996	-54.04828000
6.35999996	-54.04828000
6.39999996	-54.04828000
6.43999996	-49.56206000
6.47999996	-49.56206000
6.51999996	-45.06058000
6.55999996	-40.57436000
6.59999996	-40.57436000
6.63999996	-36.08813000
6.67999996	-36.08813000
6.71999996	-31.58666000
6.75999996	-31.58666000
6.79999996	-31.58666000
6.83999996	-22.59896000
6.87999996	-22.59896000
6.91999996	-18.11273000
6.95999996	-13.62651000
6.99999996	-4.63881300
7.03999996	-0.15259250
7.07999996	13.32133000
7.11999996	17.80755000
7.15999996	31.28147000
7.19999996	35.78295000
7.23999996	40.26917000
7.27999996	44.75539000
7.31999996	53.74309000
7.35999996	58.24457000
7.39999996	62.73079000
7.43999995	67.21701000
7.47999995	71.71850000
7.51999995	71.71850000
7.55999995	76.20471000
7.59999995	80.70620000
7.63999995	80.70620000
7.67999995	85.19241000
7.71999995	85.19241000
7.75999995	80.70620000
7.79999995	80.70620000
7.83999995	76.20471000
7.87999995	71.71850000
7.91999995	71.71850000
7.95999995	67.21701000
7.99999995	67.21701000
8.03999995	62.73079000
8.07999995	58.24457000
8.11999995	53.74309000
8.15999995	53.74309000
8.19999995	49.25687000
8.23999995	44.75539000
8.27999995	40.26917000
8.31999995	35.78295000
8.35999995	26.79525000
8.39999995	17.80755000
8.43999995	13.32133000
8.47999995	8.81984900
8.51999995	-0.15259250
8.55999995	-4.63881300
8.59999995	-9.12503300
8.63999995	-18.11273000
8.67999995	-22.59896000
8.71999995	-27.10044000
8.75999995	-31.58666000
8.79999995	-36.08813000
8.83999995	-40.57436000
8.87999995	-45.06058000
8.91999995	-45.06058000
8.95999995	-49.56206000
8.99999995	-54.04828000
9.03999995	-54.04828000
9.07999994	-54.04828000
9.11999994	-49.56206000
9.15999994	-54.04828000
9.19999994	-49.56206000
9.23999994	-45.06058000
9.27999994	-45.06058000
9.31999994	-40.57436000
9.35999994	-36.08813000
9.39999994	-36.08813000
9.43999994	-31.58666000
9.47999994	-27.10044000
9.51999994	-22.59896000
9.55999994	-18.11273000
9.59999994	-18.11273000
9.63999994	-13.62651000
9.67999994	-4.63881300
9.71999994	-0.15259250
9.75999994	-0.15259250
9.79999994	4.33362800
9.83999994	13.32133000
9.87999994	8.81984900
9.91999994	17.80755000
9.95999994	31.28147000
9.99999994	35.78295000
10.03999994	31.28147000
10.07999994	35.78295000
10.11999994	40.26917000
10.15999994	44.75539000
10.19999994	49.25687000
10.23999994	49.25687000
10.27999994	53.74309000
10.31999994	53.74309000
10.35999994	53.74309000
10.39999994	53.74309000
10.43999994	53.74309000
10.47999994	53.74309000
10.51999994	53.74309000
10.55999994	53.74309000
10.59999994	53.74309000
10.63999994	49.25687000
10.67999994	44.75539000
10.71999993	44.75539000
10.75999993	40.26917000
10.79999993	35.78295000
10.83999993	31.28147000
10.87999993	31.28147000
10.91999993	26.79525000
10.95999993	17.80755000
10.99999993	17.80755000
11.03999993	13.32133000
11.07999993	8.81984900
11.11999993	4.33362800
11.15999993	-0.15259250
11.19999993	-4.63881300
11.23999993	-9.12503300
11.27999993	-18.11273000
11.31999993	-18.11273000
11.35999993	-22.59896000
11.39999993	-27.10044000
11.43999993	-31.58666000
11.47999993	-36.08813000
11.51999993	-36.08813000
11.55999993	-40.57436000
11.59999993	-40.57436000
11.63999993	-40.57436000
11.67999993	-45.06058000
11.71999993	-45.06058000
11.75999993	-45.06058000
11.79999993	-45.06058000
11.83999993	-45.06058000
11.87999993	-45.06058000
11.91999993	-45.06058000
11.95999993	-40.57436000
11.99999993	-36.08813000
12.03999993	-36.08813000
12.07999993	-36.08813000
12.11999993	-31.58666000
12.15999993	-27.10044000
12.19999993	-22.59896000
12.23999993	-22.59896000
12.27999993	-18.11273000
12.31999993	-13.62651000
12.35999992	-9.12503300
12.39999992	-9.12503300
12.43999992	-4.63881300
12.47999992	-0.15259250
12.51999992	4.33362800
12.55999992	8.81984900
12.59999992	13.32133000
12.63999992	13.32133000
12.67999992	17.80755000
12.71999992	22.29377000
12.75999992	26.79525000
12.79999992	26.79525000
12.83999992	31.28147000
12.87999992	31.28147000
12.91999992	35.78295000
12.95999992	35.78295000
12.99999992	35.78295000
13.03999992	35.78295000
13.07999992	40.26917000
13.11999992	40.26917000
13.15999992	35.78295000
13.19999992	35.78295000
13.23999992	35.78295000
13.27999992	35.78295000
13.31999992	35.78295000
13.35999992	31.28147000
13.39999992	26.79525000
13.43999992	31.28147000
13.47999992	26.79525000
13.51999992	22.29377000
13.55999992	17.80755000
13.59999992	17.80755000
13.63999992	13.32133000
13.67999992	8.81984900
13.71999992	4.33362800
13.75999992	-0.15259250
13.79999992	-0.15259250
13.83999992	-4.63881300
13.87999992	-9.12503300
13.91999992	-13.62651000
13.95999992	-18.11273000
13.99999991	-18.11273000
14.03999991	-22.59896000
14.07999991	-22.59896000
14.11999991	-27.10044000
14.15999991	-31.58666000
14.19999991	-31.58666000
14.23999991	-36.08813000
14.27999991	-36.08813000
14.31999991	-36.08813000
14.35999991	-36.08813000
14.39999991	-36.08813000
14.43999991	-40.57436000
14.47999991	-49.56206000
14.51999991	-72.02368000
14.55999991	-76.50990000
14.59999991	-63.03598000
14.63999991	-40.57436000
14.67999991	-31.58666000
14.71999991	-22.59896000
14.75999991	-4.63881300
14.79999991	17.80755000
14.83999991	31.28147000
14.87999991	17.80755000
14.91999991	-0.15259250
14.95999991	-9.12503300
14.99999991	-9.12503300
15.03999991	-18.11273000
15.07999991	-22.59896000
15.11999991	-27.10044000
15.15999991	-18.11273000
15.19999991	-9.12503300
15.23999991	-0.15259250
15.27999991	-9.12503300
15.31999991	-4.63881300
15.35999991	-0.15259250
15.39999991	8.81984900
15.43999991	13.32133000
15.47999991	13.32133000
15.51999991	13.32133000
15.55999991	17.80755000
15.59999991	26.79525000
15.63999990	26.79525000
15.67999990	26.79525000
15.71999990	31.28147000
15.75999990	35.78295000
15.79999990	40.26917000
15.83999990	44.75539000
15.87999990	44.75539000
15.91999990	40.26917000
15.95999990	35.78295000
15.99999990	26.79525000
16.03999990	17.80755000
16.07999990	13.32133000
16.11999990	4.33362800
16.15999990	-0.15259250
16.19999990	4.33362800
16.23999990	8.81984900
16.27999990	4.33362800
16.31999990	8.81984900
16.35999990	8.81984900
16.39999990	4.33362800
16.43999990	-0.15259250
16.47999990	-4.63881300
16.51999990	-9.12503300
16.55999990	-13.62651000
16.59999990	-13.62651000
16.63999990	-13.62651000
16.67999990	-13.62651000
16.71999990	-13.62651000
16.75999990	-13.62651000
16.79999990	-13.62651000
16.83999990	-18.11273000
16.87999990	-22.59896000
16.91999990	-27.10044000
16.95999990	-31.58666000
16.99999990	-36.08813000
17.03999990	-36.08813000
17.07999990	-36.08813000
17.11999990	-36.08813000
17.15999990	-36.08813000
17.19999990	-36.08813000
17.23999990	-36.08813000
17.27999989	-36.08813000
17.31999989	-36.08813000
17.35999989	-31.58666000
17.39999989	-27.10044000
17.43999989	-27.10044000
17.47999989	-22.59896000
17.51999989	-22.59896000
17.55999989	-18.11273000
17.59999989	-18.11273000
17.63999989	-18.11273000
17.67999989	-13.62651000
17.71999989	-13.62651000
17.75999989	-9.12503300
17.79999989	-4.63881300
17.83999989	-0.15259250
17.87999989	4.33362800
17.91999989	4.33362800
17.95999989	4.33362800
17.99999989	4.33362800
18.03999989	4.33362800
18.07999989	-0.15259250
18.11999989	4.33362800
18.15999989	8.81984900
18.19999989	13.32133000
18.23999989	17.80755000
18.27999989	17.80755000
18.31999989	17.80755000
18.35999989	22.29377000
18.39999989	22.29377000
18.43999989	22.29377000
18.47999989	17.80755000
18.51999989	17.80755000
18.55999989	22.29377000
18.59999989	17.80755000
18.63999989	17.80755000
18.67999989	17.80755000
18.71999989	17.80755000
18.75999989	17.80755000
18.79999989	13.32133000
18.83999989	13.32133000
18.87999989	8.81984900
18.91999989	8.81984900
18.95999988	8.81984900
18.99999988	-0.15259250
19.03999988	-0.15259250
19.07999988	-0.15259250
19.11999988	-0.15259250
19.15999988	-4.63881300
19.19999988	-9.12503300
19.23999988	-9.12503300
19.27999988	-13.62651000
19.31999988	-13.62651000
19.35999988	-18.11273000
19.39999988	-18.11273000
19.43999988	-18.11273000
19.47999988	-22.59896000
19.51999988	-22.59896000
19.55999988	-22.59896000
19.59999988	-27.10044000
19.63999988	-27.10044000
19.67999988	-27.10044000
19.71999988	-36.08813000
19.75999988	-36.08813000
19.79999988	-22.59896000
19.83999988	-22.59896000
19.87999988	-31.58666000
19.91999988	-31.58666000
19.95999988	-27.10044000
19.99999988	-27.10044000
20.03999988	-27.10044000
20.07999988	-27.10044000
20.11999988	-22.59896000
20.15999988	-22.59896000
20.19999988	-22.59896000
20.23999988	-18.11273000
20.27999988	-18.11273000
20.31999988	-13.62651000
20.35999988	-13.62651000
20.39999988	-9.12503300
20.43999988	-4.63881300
20.47999988	-4.63881300
20.51999988	-4.63881300
20.55999988	-4.63881300
20.59999987	-0.15259250
20.63999987	-0.15259250
20.67999987	4.33362800
20.71999987	4.33362800
20.75999987	8.81984900
20.79999987	8.81984900
20.83999987	13.32133000
20.87999987	13.32133000
20.91999987	13.32133000
20.95999987	13.32133000
20.99999987	13.32133000
21.03999987	13.32133000
21.07999987	13.32133000
21.11999987	13.32133000
21.15999987	13.32133000
21.19999987	-0.15259250
21.23999987	-22.59896000
21.27999987	-13.62651000
21.31999987	-0.15259250
21.35999987	8.81984900
21.39999987	13.32133000
21.43999987	31.28147000
21.47999987	44.75539000
21.51999987	62.73079000
21.55999987	58.24457000
21.59999987	35.78295000
21.63999987	13.32133000
21.67999987	8.81984900
21.71999987	-0.15259250
21.75999987	-9.12503300
21.79999987	-27.10044000
21.83999987	-27.10044000
21.87999987	-18.11273000
21.91999987	-18.11273000
21.95999987	-22.59896000
21.99999987	-27.10044000
22.03999987	-27.10044000
22.07999987	-22.59896000
22.11999987	-22.59896000
22.15999987	-22.59896000
22.19999987	-27.10044000
22.23999986	-27.10044000
22.27999986	-22.59896000
22.31999986	-22.59896000
22.35999986	-22.59896000
22.39999986	-27.10044000
22.43999986	-22.59896000
22.47999986	-13.62651000
22.51999986	-4.63881300
22.55999986	-4.63881300
22.59999986	-9.12503300
22.63999986	-13.62651000
22.67999986	-18.11273000
22.71999986	-18.11273000
22.75999986	-22.59896000
22.79999986	-31.58666000
22.83999986	-31.58666000
22.87999986	-31.58666000
22.91999986	-22.59896000
22.95999986	-18.11273000
22.99999986	-13.62651000
23.03999986	-13.62651000
23.07999986	-4.63881300
23.11999986	-4.63881300
23.15999986	-4.63881300
23.19999986	-9.12503300
23.23999986	-4.63881300
23.27999986	-4.63881300
23.31999986	-0.15259250
23.35999986	4.33362800
23.39999986	8.81984900
23.43999986	13.32133000
23.47999986	17.80755000
23.51999986	17.80755000
23.55999986	17.80755000
23.59999986	13.32133000
23.63999986	8.81984900
23.67999986	8.81984900
23.71999986	8.81984900
23.75999986	4.33362800
23.79999986	4.33362800
23.83999986	4.33362800
23.87999985	8.81984900
23.91999985	8.81984900
23.95999985	8.81984900
23.99999985	4.33362800
24.03999985	8.81984900
24.07999985	8.81984900
24.11999985	4.33362800
24.15999985	8.81984900
24.19999985	8.81984900
24.23999985	4.33362800
24.27999985	4.33362800
24.31999985	-0.15259250
24.35999985	-0.15259250
24.39999985	-0.15259250
24.43999985	-0.15259250
24.47999985	-0.15259250
24.51999985	-4.63881300
24.55999985	-4.63881300
24.59999985	-9.12503300
24.63999985	-9.12503300
24.67999985	-13.62651000
24.71999985	-13.62651000
24.75999985	-18.11273000
24.79999985	-22.59896000
24.83999985	-22.59896000
24.87999985	-22.59896000
24.91999985	-18.11273000
24.95999985	-18.11273000
24.99999985	-18.11273000
25.03999985	-18.11273000
25.07999985	-18.11273000
25.11999985	-18.11273000
25.15999985	-18.11273000
25.19999985	-18.11273000
25.23999985	-22.59896000
25.27999985	-18.11273000
25.31999985	-18.11273000
25.35999985	-18.11273000
25.39999985	-18.11273000
25.43999985	-18.11273000
25.47999985	-18.11273000
25.51999984	-18.11273000
25.55999984	-18.11273000
25.59999984	-18.11273000
25.63999984	-13.62651000
25.67999984	-13.62651000
25.71999984	-13.62651000
25.75999984	-9.12503300
25.79999984	-9.12503300
25.83999984	-9.12503300
25.87999984	-4.63881300
25.91999984	-4.63881300
25.95999984	-0.15259250
25.99999984	-0.15259250
26.03999984	-0.15259250
26.07999984	-0.15259250
26.11999984	4.33362800
26.15999984	4.33362800
26.19999984	4.33362800
26.23999984	4.33362800
26.27999984	4.33362800
26.31999984	4.33362800
26.35999984	8.81984900
26.39999984	8.81984900
26.43999984	8.81984900
26.47999984	8.81984900
26.51999984	8.81984900
26.55999984	8.81984900
26.59999984	8.81984900
26.63999984	8.81984900
26.67999984	4.33362800
26.71999984	4.33362800
26.75999984	4.33362800
26.79999984	4.33362800
26.83999984	-0.15259250
26.87999984	-0.15259250
26.91999984	-0.15259250
26.95999984	4.33362800
26.99999984	-0.15259250
27.03999984	-0.15259250
27.07999984	-0.15259250
27.11999984	-0.15259250
27.15999983	-4.63881300
27.19999983	-4.63881300
27.23999983	-4.63881300
27.27999983	-9.12503300
27.31999983	-9.12503300
27.35999983	-13.62651000
27.39999983	-9.12503300
27.43999983	-13.62651000
27.47999983	-13.62651000
27.51999983	-18.11273000
27.55999983	-18.11273000
27.59999983	-18.11273000
27.63999983	-18.11273000
27.67999983	-18.11273000
27.71999983	-18.11273000
27.75999983	-13.62651000
27.79999983	-18.11273000
27.83999983	-18.11273000
27.87999983	-18.11273000
27.91999983	-18.11273000
27.95999983	-18.11273000
27.99999983	-18.11273000
28.03999983	-18.11273000
28.07999983	-18.11273000
28.11999983	-13.62651000
28.15999983	-13.62651000
28.19999983	-13.62651000
28.23999983	-13.62651000
28.27999983	-13.62651000
28.31999983	-13.62651000
28.35999983	-9.12503300
28.39999983	-9.12503300
28.43999983	-9.12503300
28.47999983	-9.12503300
28.51999983	-4.63881300
28.55999983	-4.63881300
28.59999983	-4.63881300
28.63999983	-0.15259250
28.67999983	-0.15259250
28.71999983	-0.15259250
28.75999983	-0.15259250
28.79999982	4.33362800
28.83999982	4.33362800
28.87999982	4.33362800
28.91999982	-0.15259250
28.95999982	4.33362800
28.99999982	4.33362800
29.03999982	4.33362800
29.07999982	4.33362800
29.11999982	4.33362800
29.15999982	4.33362800
29.19999982	4.33362800
29.23999982	4.33362800
29.27999982	4.33362800
29.31999982	4.33362800
29.35999982	4.33362800
29.39999982	4.33362800
29.43999982	4.33362800
29.47999982	-0.15259250
29.51999982	4.33362800
29.55999982	-4.63881300
29.59999982	-4.63881300
29.63999982	4.33362800
29.67999982	4.33362800
29.71999982	-0.15259250
29.75999982	-0.15259250
29.79999982	-4.63881300
29.83999982	-0.15259250
29.87999982	-4.63881300
29.91999982	-4.63881300
29.95999982	-4.63881300
29.99999982	-9.12503300
30.03999982	-9.12503300
30.07999982	-9.12503300
30.11999982	-9.12503300
30.15999982	-13.62651000
30.19999982	-18.11273000
30.23999982	-13.62651000
30.27999982	-13.62651000
30.31999982	-18.11273000
30.35999982	-18.11273000
30.39999982	-13.62651000
30.43999982	-13.62651000
30.47999981	-18.11273000
30.51999981	-18.11273000
30.55999981	-18.11273000
30.59999981	-13.62651000
30.63999981	-18.11273000
30.67999981	-13.62651000
30.71999981	-13.62651000
30.75999981	-13.62651000
30.79999981	-13.62651000
30.83999981	-13.62651000
30.87999981	-13.62651000
30.91999981	-9.12503300
30.95999981	-9.12503300
30.99999981	-9.12503300
31.03999981	-9.12503300
31.07999981	-9.12503300
31.11999981	-4.63881300
31.15999981	-4.63881300
31.19999981	-4.63881300
31.23999981	-4.63881300
31.27999981	-4.63881300
31.31999981	-0.15259250
31.35999981	-0.15259250
31.39999981	-0.15259250
31.43999981	-0.15259250
31.47999981	-0.15259250
31.51999981	-0.15259250
31.55999981	-0.15259250
31.59999981	-0.15259250
31.63999981	4.33362800
31.67999981	4.33362800
31.71999981	-0.15259250
31.75999981	-0.15259250
