Time	Channel A
(us)	(mV)

0.00000000	-0.15259250
0.04000000	-4.63881300
0.08000000	-0.15259250
0.12000000	-0.15259250
0.16000000	-0.15259250
0.20000000	-0.15259250
0.24000000	-4.63881300
0.28000000	-0.15259250
0.32000000	-0.15259250
0.36000000	-0.15259250
0.40000000	-0.15259250
0.44000000	-0.15259250
0.48000000	-0.15259250
0.52000000	-0.15259250
0.56000000	-0.15259250
0.60000000	-0.15259250
0.64000000	8.81984900
0.68000000	31.28147000
0.72000000	62.73079000
0.76000000	107.65400000
0.80000000	157.06350000
0.83999999	206.47300000
0.87999999	246.91000000
0.91999999	273.85780000
0.95999999	287.34700000
0.99999999	264.88540000
1.03999999	224.44840000
1.07999999	192.99900000
1.11999999	161.56500000
1.15999999	139.10340000
1.19999999	116.64170000
1.23999999	80.70620000
1.27999999	49.25687000
1.31999999	4.33362800
1.35999999	-40.57436000
1.39999999	-89.98383000
1.43999999	-134.90710000
1.47999999	-175.34410000
1.51999999	-202.29190000
1.55999999	-233.74130000
1.59999999	-202.29190000
1.63999999	-179.83030000
1.67999999	-157.36870000
1.71999999	-161.87020000
1.75999999	-161.87020000
1.79999999	-152.88250000
1.83999999	-152.88250000
1.87999999	-148.38100000
1.91999999	-143.89480000
1.95999999	-134.90710000
1.99999999	-125.91940000
2.03999999	-125.91940000
2.07999999	-125.91940000
2.11999999	-121.43310000
2.15999999	-121.43310000
2.19999999	-121.43310000
2.23999999	-107.95920000
2.27999999	-89.98383000
2.31999999	-76.50990000
2.35999999	-58.54976000
2.39999999	-40.57436000
2.43999999	-27.10044000
2.47999998	-13.62651000
2.51999998	-0.15259250
2.55999998	26.79525000
2.59999998	53.74309000
2.63999998	85.19241000
2.67999998	121.12800000
2.71999998	161.56500000
2.75999998	197.50050000
2.79999998	233.43610000
2.83999998	251.39620000
2.87999998	260.38390000
2.91999998	260.38390000
2.95999998	260.38390000
2.99999998	246.91000000
3.03999998	237.92230000
3.07999998	242.42380000
3.11999998	219.96210000
3.15999998	219.96210000
3.19999998	219.96210000
3.23999998	206.47300000
3.27999998	201.98670000
3.31999998	201.98670000
3.35999998	192.99900000
3.39999998	188.51280000
3.43999998	179.52510000
3.47999998	161.56500000
3.51999998	143.58960000
3.55999998	121.12800000
3.59999998	85.19241000
3.63999998	49.25687000
3.67999998	-0.15259250
3.71999998	-54.04828000
3.75999998	-112.44540000
3.79999998	-161.87020000
3.83999998	-215.76590000
3.87999998	-229.23980000
3.91999998	-233.74130000
3.95999998	-197.80570000
3.99999998	-179.83030000
4.03999998	-148.38100000
4.07999998	-143.89480000
4.11999997	-130.42080000
4.15999997	-125.91940000
4.19999997	-112.44540000
4.23999997	-107.95920000
4.27999997	-98.97152000
4.31999997	-98.97152000
4.35999997	-94.48530000
4.39999997	-103.45770000
4.43999997	-89.98383000
4.47999997	-81.01138000
4.51999997	-81.01138000
4.55999997	-94.48530000
4.59999997	-76.50990000
4.63999997	-54.04828000
4.67999997	-54.04828000
4.71999997	-54.04828000
4.75999997	-40.57436000
4.79999997	-4.63881300
4.83999997	35.78295000
4.87999997	67.21701000
4.91999997	89.67863000
4.95999997	112.14030000
4.99999997	143.58960000
5.03999997	179.52510000
5.07999997	201.98670000
5.11999997	233.43610000
5.15999997	251.39620000
5.19999997	255.89770000
5.23999997	251.39620000
5.27999997	251.39620000
5.31999997	228.93460000
5.35999997	215.46070000
5.39999997	215.46070000
5.43999997	201.98670000
5.47999997	184.02660000
5.51999997	166.05120000
5.55999997	157.06350000
5.59999997	143.58960000
5.63999997	134.60190000
5.67999997	107.65400000
5.71999997	89.67863000
5.75999996	67.21701000
5.79999996	40.26917000
5.83999996	-4.63881300
5.87999996	-58.54976000
5.91999996	-112.44540000
5.95999996	-166.35640000
5.99999996	-202.29190000
6.03999996	-211.27960000
6.07999996	-206.77810000
6.11999996	-206.77810000
6.15999996	-202.29190000
6.19999996	-197.80570000
6.23999996	-179.83030000
6.27999996	-166.35640000
6.31999996	-148.38100000
6.35999996	-130.42080000
6.39999996	-116.94690000
6.43999996	-107.95920000
6.47999996	-107.95920000
6.51999996	-107.95920000
6.55999996	-112.44540000
6.59999996	-116.94690000
6.63999996	-112.44540000
6.67999996	-107.95920000
6.71999996	-94.48530000
6.75999996	-81.01138000
6.79999996	-63.03598000
6.83999996	-40.57436000
6.87999996	-18.11273000
6.91999996	4.33362800
6.95999996	31.28147000
6.99999996	53.74309000
7.03999996	76.20471000
7.07999996	94.18011000
7.11999996	121.12800000
7.15999996	139.10340000
7.19999996	157.06350000
7.23999996	175.03890000
7.27999996	184.02660000
7.31999996	188.51280000
7.35999996	179.52510000
7.39999996	175.03890000
7.43999995	161.56500000
7.47999995	152.57730000
7.51999995	148.07580000
7.55999995	143.58960000
7.59999995	143.58960000
7.63999995	134.60190000
7.67999995	130.11560000
7.71999995	125.61420000
7.75999995	121.12800000
7.79999995	121.12800000
7.83999995	116.64170000
7.87999995	121.12800000
7.91999995	116.64170000
7.95999995	112.14030000
7.99999995	107.65400000
8.03999995	98.66634000
8.07999995	89.67863000
8.11999995	80.70620000
8.15999995	71.71850000
8.19999995	67.21701000
8.23999995	53.74309000
8.27999995	44.75539000
8.31999995	35.78295000
8.35999995	26.79525000
8.39999995	17.80755000
8.43999995	8.81984900
8.47999995	-0.15259250
8.51999995	-4.63881300
8.55999995	-13.62651000
8.59999995	-18.11273000
8.63999995	-22.59896000
8.67999995	-27.10044000
8.71999995	-36.08813000
8.75999995	-36.08813000
8.79999995	-40.57436000
8.83999995	-45.06058000
8.87999995	-49.56206000
8.91999995	-49.56206000
8.95999995	-54.04828000
8.99999995	-54.04828000
9.03999995	-54.04828000
9.07999994	-49.56206000
9.11999994	-49.56206000
9.15999994	-45.06058000
9.19999994	-40.57436000
9.23999994	-36.08813000
9.27999994	-36.08813000
9.31999994	-31.58666000
9.35999994	-27.10044000
9.39999994	-22.59896000
9.43999994	-18.11273000
9.47999994	-18.11273000
9.51999994	-9.12503300
9.55999994	-9.12503300
9.59999994	-0.15259250
9.63999994	8.81984900
9.67999994	13.32133000
9.71999994	22.29377000
9.75999994	31.28147000
9.79999994	35.78295000
9.83999994	40.26917000
9.87999994	44.75539000
9.91999994	44.75539000
9.95999994	53.74309000
9.99999994	53.74309000
10.03999994	58.24457000
10.07999994	62.73079000
10.11999994	62.73079000
10.15999994	67.21701000
10.19999994	67.21701000
10.23999994	71.71850000
10.27999994	71.71850000
10.31999994	71.71850000
10.35999994	71.71850000
10.39999994	67.21701000
10.43999994	67.21701000
10.47999994	71.71850000
10.51999994	67.21701000
10.55999994	62.73079000
10.59999994	53.74309000
10.63999994	53.74309000
10.67999994	49.25687000
10.71999993	44.75539000
10.75999993	40.26917000
10.79999993	35.78295000
10.83999993	35.78295000
10.87999993	31.28147000
10.91999993	22.29377000
10.95999993	17.80755000
10.99999993	13.32133000
11.03999993	4.33362800
11.07999993	-0.15259250
11.11999993	-4.63881300
11.15999993	-9.12503300
11.19999993	-13.62651000
11.23999993	-18.11273000
11.27999993	-22.59896000
11.31999993	-27.10044000
11.35999993	-31.58666000
11.39999993	-36.08813000
11.43999993	-36.08813000
11.47999993	-40.57436000
11.51999993	-40.57436000
11.55999993	-45.06058000
11.59999993	-45.06058000
11.63999993	-45.06058000
11.67999993	-45.06058000
11.71999993	-49.56206000
11.75999993	-45.06058000
11.79999993	-40.57436000
11.83999993	-40.57436000
11.87999993	-40.57436000
11.91999993	-40.57436000
11.95999993	-36.08813000
11.99999993	-36.08813000
12.03999993	-31.58666000
12.07999993	-27.10044000
12.11999993	-22.59896000
12.15999993	-22.59896000
12.19999993	-18.11273000
12.23999993	-13.62651000
12.27999993	-9.12503300
12.31999993	-4.63881300
12.35999992	-0.15259250
12.39999992	4.33362800
12.43999992	8.81984900
12.47999992	13.32133000
12.51999992	17.80755000
12.55999992	17.80755000
12.59999992	22.29377000
12.63999992	26.79525000
12.67999992	31.28147000
12.71999992	31.28147000
12.75999992	35.78295000
12.79999992	35.78295000
12.83999992	35.78295000
12.87999992	40.26917000
12.91999992	40.26917000
12.95999992	40.26917000
12.99999992	40.26917000
13.03999992	40.26917000
13.07999992	40.26917000
13.11999992	40.26917000
13.15999992	40.26917000
13.19999992	40.26917000
13.23999992	40.26917000
13.27999992	35.78295000
13.31999992	31.28147000
13.35999992	31.28147000
13.39999992	26.79525000
13.43999992	17.80755000
13.47999992	17.80755000
13.51999992	17.80755000
13.55999992	13.32133000
13.59999992	8.81984900
13.63999992	4.33362800
13.67999992	-0.15259250
13.71999992	-0.15259250
13.75999992	-4.63881300
13.79999992	-4.63881300
13.83999992	-9.12503300
13.87999992	-13.62651000
13.91999992	-18.11273000
13.95999992	-18.11273000
13.99999991	-22.59896000
14.03999991	-27.10044000
14.07999991	-27.10044000
14.11999991	-31.58666000
14.15999991	-31.58666000
14.19999991	-36.08813000
14.23999991	-36.08813000
14.27999991	-36.08813000
14.31999991	-36.08813000
14.35999991	-36.08813000
14.39999991	-36.08813000
14.43999991	-36.08813000
14.47999991	-36.08813000
14.51999991	-27.10044000
14.55999991	-13.62651000
14.59999991	-0.15259250
14.63999991	-0.15259250
14.67999991	-18.11273000
14.71999991	-27.10044000
14.75999991	-31.58666000
14.79999991	-40.57436000
14.83999991	-63.03598000
14.87999991	-72.02368000
14.91999991	-63.03598000
14.95999991	-36.08813000
14.99999991	-18.11273000
15.03999991	-9.12503300
15.07999991	-0.15259250
15.11999991	17.80755000
15.15999991	31.28147000
15.19999991	31.28147000
15.23999991	22.29377000
15.27999991	17.80755000
15.31999991	17.80755000
15.35999991	22.29377000
15.39999991	31.28147000
15.43999991	35.78295000
15.47999991	31.28147000
15.51999991	31.28147000
15.55999991	31.28147000
15.59999991	35.78295000
15.63999990	31.28147000
15.67999990	22.29377000
15.71999990	22.29377000
15.75999990	17.80755000
15.79999990	17.80755000
15.83999990	8.81984900
15.87999990	4.33362800
15.91999990	8.81984900
15.95999990	8.81984900
15.99999990	13.32133000
16.03999990	17.80755000
16.07999990	17.80755000
16.11999990	17.80755000
16.15999990	22.29377000
16.19999990	26.79525000
16.23999990	17.80755000
16.27999990	8.81984900
16.31999990	4.33362800
16.35999990	-0.15259250
16.39999990	-4.63881300
16.43999990	-9.12503300
16.47999990	-9.12503300
16.51999990	-9.12503300
16.55999990	-9.12503300
16.59999990	-13.62651000
16.63999990	-18.11273000
16.67999990	-22.59896000
16.71999990	-27.10044000
16.75999990	-31.58666000
16.79999990	-36.08813000
16.83999990	-36.08813000
16.87999990	-36.08813000
16.91999990	-31.58666000
16.95999990	-31.58666000
16.99999990	-27.10044000
17.03999990	-27.10044000
17.07999990	-22.59896000
17.11999990	-22.59896000
17.15999990	-22.59896000
17.19999990	-22.59896000
17.23999990	-22.59896000
17.27999989	-22.59896000
17.31999989	-22.59896000
17.35999989	-22.59896000
17.39999989	-22.59896000
17.43999989	-18.11273000
17.47999989	-18.11273000
17.51999989	-18.11273000
17.55999989	-18.11273000
17.59999989	-13.62651000
17.63999989	-13.62651000
17.67999989	-9.12503300
17.71999989	-9.12503300
17.75999989	-4.63881300
17.79999989	-4.63881300
17.83999989	-4.63881300
17.87999989	-0.15259250
17.91999989	-0.15259250
17.95999989	4.33362800
17.99999989	4.33362800
18.03999989	8.81984900
18.07999989	13.32133000
18.11999989	17.80755000
18.15999989	17.80755000
18.19999989	17.80755000
18.23999989	17.80755000
18.27999989	17.80755000
18.31999989	13.32133000
18.35999989	13.32133000
18.39999989	13.32133000
18.43999989	13.32133000
18.47999989	13.32133000
18.51999989	13.32133000
18.55999989	13.32133000
18.59999989	13.32133000
18.63999989	13.32133000
18.67999989	8.81984900
18.71999989	8.81984900
18.75999989	8.81984900
18.79999989	8.81984900
18.83999989	4.33362800
18.87999989	4.33362800
18.91999989	4.33362800
18.95999988	-0.15259250
18.99999988	-0.15259250
19.03999988	-0.15259250
19.07999988	-0.15259250
19.11999988	-4.63881300
19.15999988	-4.63881300
19.19999988	-9.12503300
19.23999988	-9.12503300
19.27999988	-13.62651000
19.31999988	-18.11273000
19.35999988	-18.11273000
19.39999988	-18.11273000
19.43999988	-18.11273000
19.47999988	-22.59896000
19.51999988	-22.59896000
19.55999988	-22.59896000
19.59999988	-22.59896000
19.63999988	-22.59896000
19.67999988	-22.59896000
19.71999988	-22.59896000
19.75999988	-18.11273000
19.79999988	-22.59896000
19.83999988	-18.11273000
19.87999988	-18.11273000
19.91999988	-18.11273000
19.95999988	-18.11273000
19.99999988	-18.11273000
20.03999988	-18.11273000
20.07999988	-18.11273000
20.11999988	-18.11273000
20.15999988	-13.62651000
20.19999988	-13.62651000
20.23999988	-18.11273000
20.27999988	-13.62651000
20.31999988	-9.12503300
20.35999988	-4.63881300
20.39999988	-9.12503300
20.43999988	-9.12503300
20.47999988	-4.63881300
20.51999988	-4.63881300
20.55999988	-0.15259250
20.59999987	-0.15259250
20.63999987	4.33362800
20.67999987	4.33362800
20.71999987	4.33362800
20.75999987	4.33362800
20.79999987	8.81984900
20.83999987	4.33362800
20.87999987	8.81984900
20.91999987	8.81984900
20.95999987	8.81984900
20.99999987	8.81984900
21.03999987	8.81984900
21.07999987	8.81984900
21.11999987	8.81984900
21.15999987	8.81984900
21.19999987	8.81984900
21.23999987	8.81984900
21.27999987	8.81984900
21.31999987	4.33362800
21.35999987	4.33362800
21.39999987	4.33362800
21.43999987	4.33362800
21.47999987	-0.15259250
21.51999987	-0.15259250
21.55999987	-0.15259250
21.59999987	-0.15259250
21.63999987	-0.15259250
21.67999987	-0.15259250
21.71999987	-0.15259250
21.75999987	-4.63881300
21.79999987	-4.63881300
21.83999987	-4.63881300
21.87999987	-9.12503300
21.91999987	-9.12503300
21.95999987	-9.12503300
21.99999987	-13.62651000
22.03999987	-13.62651000
22.07999987	-13.62651000
22.11999987	-13.62651000
22.15999987	-13.62651000
22.19999987	-13.62651000
22.23999986	-13.62651000
22.27999986	-18.11273000
22.31999986	-18.11273000
22.35999986	-18.11273000
22.39999986	-18.11273000
22.43999986	-18.11273000
22.47999986	-18.11273000
22.51999986	-18.11273000
22.55999986	-18.11273000
22.59999986	-18.11273000
22.63999986	-18.11273000
22.67999986	-18.11273000
22.71999986	-13.62651000
22.75999986	-13.62651000
22.79999986	-13.62651000
22.83999986	-9.12503300
22.87999986	-9.12503300
22.91999986	-9.12503300
22.95999986	-9.12503300
22.99999986	-9.12503300
23.03999986	-4.63881300
23.07999986	-4.63881300
23.11999986	-4.63881300
23.15999986	-4.63881300
23.19999986	-4.63881300
23.23999986	-0.15259250
23.27999986	-0.15259250
23.31999986	-0.15259250
23.35999986	-0.15259250
23.39999986	-0.15259250
23.43999986	-0.15259250
23.47999986	4.33362800
23.51999986	4.33362800
23.55999986	4.33362800
23.59999986	4.33362800
23.63999986	4.33362800
23.67999986	8.81984900
23.71999986	4.33362800
23.75999986	4.33362800
23.79999986	4.33362800
23.83999986	4.33362800
23.87999985	4.33362800
23.91999985	4.33362800
23.95999985	4.33362800
23.99999985	4.33362800
24.03999985	4.33362800
24.07999985	4.33362800
24.11999985	4.33362800
24.15999985	-0.15259250
24.19999985	-0.15259250
24.23999985	-0.15259250
24.27999985	-0.15259250
24.31999985	-0.15259250
24.35999985	-0.15259250
24.39999985	-0.15259250
24.43999985	-4.63881300
24.47999985	-4.63881300
24.51999985	-4.63881300
24.55999985	-4.63881300
24.59999985	-9.12503300
24.63999985	-9.12503300
24.67999985	-9.12503300
24.71999985	-9.12503300
24.75999985	-9.12503300
24.79999985	-9.12503300
24.83999985	-9.12503300
24.87999985	-13.62651000
24.91999985	-9.12503300
24.95999985	-13.62651000
24.99999985	-13.62651000
25.03999985	-13.62651000
25.07999985	-13.62651000
25.11999985	-13.62651000
25.15999985	-13.62651000
25.19999985	-13.62651000
25.23999985	-13.62651000
25.27999985	-9.12503300
25.31999985	-9.12503300
25.35999985	-13.62651000
25.39999985	-13.62651000
25.43999985	-9.12503300
25.47999985	-9.12503300
25.51999984	-9.12503300
25.55999984	-9.12503300
25.59999984	-9.12503300
25.63999984	-4.63881300
25.67999984	-9.12503300
25.71999984	-4.63881300
25.75999984	-4.63881300
25.79999984	-4.63881300
25.83999984	-4.63881300
25.87999984	-4.63881300
25.91999984	-0.15259250
25.95999984	-4.63881300
25.99999984	-0.15259250
26.03999984	-0.15259250
26.07999984	-0.15259250
26.11999984	-0.15259250
26.15999984	-0.15259250
26.19999984	-0.15259250
26.23999984	-0.15259250
26.27999984	-0.15259250
26.31999984	-0.15259250
26.35999984	-0.15259250
26.39999984	4.33362800
26.43999984	-0.15259250
26.47999984	4.33362800
26.51999984	-0.15259250
26.55999984	-0.15259250
26.59999984	-0.15259250
26.63999984	-0.15259250
26.67999984	-0.15259250
26.71999984	4.33362800
26.75999984	-0.15259250
26.79999984	-0.15259250
26.83999984	-0.15259250
26.87999984	-0.15259250
26.91999984	-0.15259250
26.95999984	-0.15259250
26.99999984	-0.15259250
27.03999984	-4.63881300
27.07999984	-4.63881300
27.11999984	-4.63881300
27.15999983	-4.63881300
27.19999983	-4.63881300
27.23999983	-4.63881300
27.27999983	-4.63881300
27.31999983	-4.63881300
27.35999983	-4.63881300
27.39999983	-4.63881300
27.43999983	-9.12503300
27.47999983	-9.12503300
27.51999983	-9.12503300
27.55999983	-9.12503300
27.59999983	-9.12503300
27.63999983	-9.12503300
27.67999983	-9.12503300
27.71999983	-9.12503300
27.75999983	-13.62651000
27.79999983	-9.12503300
27.83999983	-9.12503300
27.87999983	-9.12503300
27.91999983	-9.12503300
27.95999983	-9.12503300
27.99999983	-9.12503300
28.03999983	-9.12503300
28.07999983	-9.12503300
28.11999983	-9.12503300
28.15999983	-9.12503300
28.19999983	-9.12503300
28.23999983	-9.12503300
28.27999983	-4.63881300
28.31999983	-4.63881300
28.35999983	-9.12503300
28.39999983	-4.63881300
28.43999983	-4.63881300
28.47999983	-4.63881300
28.51999983	-4.63881300
28.55999983	-0.15259250
28.59999983	-4.63881300
28.63999983	-0.15259250
28.67999983	-0.15259250
28.71999983	-0.15259250
28.75999983	-0.15259250
28.79999982	-0.15259250
28.83999982	-0.15259250
28.87999982	-0.15259250
28.91999982	-0.15259250
28.95999982	-0.15259250
28.99999982	-0.15259250
29.03999982	-0.15259250
29.07999982	-0.15259250
29.11999982	-0.15259250
29.15999982	-0.15259250
29.19999982	-0.15259250
29.23999982	-0.15259250
29.27999982	-0.15259250
29.31999982	-0.15259250
29.35999982	-0.15259250
29.39999982	-0.15259250
29.43999982	-0.15259250
29.47999982	-0.15259250
29.51999982	-0.15259250
29.55999982	-0.15259250
29.59999982	-0.15259250
29.63999982	-0.15259250
29.67999982	-0.15259250
29.71999982	-4.63881300
29.75999982	-4.63881300
29.79999982	-4.63881300
29.83999982	-4.63881300
29.87999982	-4.63881300
29.91999982	-4.63881300
29.95999982	-4.63881300
29.99999982	-9.12503300
30.03999982	-9.12503300
30.07999982	-13.62651000
30.11999982	-9.12503300
30.15999982	-4.63881300
30.19999982	-4.63881300
30.23999982	-9.12503300
30.27999982	-9.12503300
30.31999982	-9.12503300
30.35999982	-9.12503300
30.39999982	-9.12503300
30.43999982	-9.12503300
30.47999981	-9.12503300
30.51999981	-9.12503300
30.55999981	-9.12503300
30.59999981	-9.12503300
30.63999981	-9.12503300
30.67999981	-9.12503300
30.71999981	-9.12503300
30.75999981	-4.63881300
30.79999981	-4.63881300
30.83999981	-4.63881300
30.87999981	-4.63881300
30.91999981	-4.63881300
30.95999981	-4.63881300
30.99999981	-4.63881300
31.03999981	-4.63881300
31.07999981	-4.63881300
31.11999981	-4.63881300
31.15999981	-4.63881300
31.19999981	-4.63881300
31.23999981	-4.63881300
31.27999981	-4.63881300
31.31999981	-4.63881300
31.35999981	-0.15259250
31.39999981	-0.15259250
31.43999981	-0.15259250
31.47999981	-0.15259250
31.51999981	-0.15259250
31.55999981	-0.15259250
31.59999981	-0.15259250
31.63999981	-0.15259250
31.67999981	-0.15259250
31.71999981	-0.15259250
31.75999981	-0.15259250
31.79999981	-0.15259250
