Time	Channel A
(us)	(mV)

0.00000000	-125.91940000
0.04000000	-125.91940000
0.08000000	-116.94690000
0.12000000	-116.94690000
0.16000000	-107.95920000
0.20000000	-103.45770000
0.24000000	-94.48530000
0.28000000	-85.49760000
0.32000000	-76.50990000
0.36000000	-63.03598000
0.40000000	-54.04828000
0.44000000	-40.57436000
0.48000000	-31.58666000
0.52000000	-18.11273000
0.56000000	-9.12503300
0.60000000	4.33362800
0.64000000	17.80755000
0.68000000	26.79525000
0.72000000	40.26917000
0.76000000	49.25687000
0.80000000	58.24457000
0.83999999	67.21701000
0.87999999	76.20471000
0.91999999	80.70620000
0.95999999	89.67863000
0.99999999	98.66634000
1.03999999	103.15250000
1.07999999	107.65400000
1.11999999	112.14030000
1.15999999	112.14030000
1.19999999	116.64170000
1.23999999	121.12800000
1.27999999	121.12800000
1.31999999	116.64170000
1.35999999	116.64170000
1.39999999	116.64170000
1.43999999	107.65400000
1.47999999	103.15250000
1.51999999	94.18011000
1.55999999	89.67863000
1.59999999	80.70620000
1.63999999	71.71850000
1.67999999	62.73079000
1.71999999	53.74309000
1.75999999	44.75539000
1.79999999	31.28147000
1.83999999	17.80755000
1.87999999	8.81984900
1.91999999	-0.15259250
1.95999999	-13.62651000
1.99999999	-22.59896000
2.03999999	-36.08813000
2.07999999	-45.06058000
2.11999999	-54.04828000
2.15999999	-67.52220000
2.19999999	-76.50990000
2.23999999	-81.01138000
2.27999999	-89.98383000
2.31999999	-94.48530000
2.35999999	-103.45770000
2.39999999	-107.95920000
2.43999999	-107.95920000
2.47999998	-112.44540000
2.51999998	-116.94690000
2.55999998	-121.43310000
2.59999998	-116.94690000
2.63999998	-116.94690000
2.67999998	-116.94690000
2.71999998	-112.44540000
2.75999998	-112.44540000
2.79999998	-107.95920000
2.83999998	-98.97152000
2.87999998	-94.48530000
2.91999998	-89.98383000
2.95999998	-76.50990000
2.99999998	-72.02368000
3.03999998	-58.54976000
3.07999998	-49.56206000
3.11999998	-40.57436000
3.15999998	-27.10044000
3.19999998	-18.11273000
3.23999998	-9.12503300
3.27999998	-0.15259250
3.31999998	13.32133000
3.35999998	26.79525000
3.39999998	35.78295000
3.43999998	44.75539000
3.47999998	53.74309000
3.51999998	62.73079000
3.55999998	71.71850000
3.59999998	80.70620000
3.63999998	85.19241000
3.67999998	85.19241000
3.71999998	98.66634000
3.75999998	103.15250000
3.79999998	107.65400000
3.83999998	107.65400000
3.87999998	107.65400000
3.91999998	112.14030000
3.95999998	112.14030000
3.99999998	107.65400000
4.03999998	107.65400000
4.07999998	107.65400000
4.11999997	103.15250000
4.15999997	94.18011000
4.19999997	89.67863000
4.23999997	85.19241000
4.27999997	76.20471000
4.31999997	67.21701000
4.35999997	58.24457000
4.39999997	49.25687000
4.43999997	35.78295000
4.47999997	26.79525000
4.51999997	17.80755000
4.55999997	4.33362800
4.59999997	-4.63881300
4.63999997	-13.62651000
4.67999997	-22.59896000
4.71999997	-36.08813000
4.75999997	-45.06058000
4.79999997	-54.04828000
4.83999997	-63.03598000
4.87999997	-72.02368000
4.91999997	-76.50990000
4.95999997	-85.49760000
4.99999997	-89.98383000
5.03999997	-98.97152000
5.07999997	-103.45770000
5.11999997	-107.95920000
5.15999997	-107.95920000
5.19999997	-107.95920000
5.23999997	-112.44540000
5.27999997	-112.44540000
5.31999997	-112.44540000
5.35999997	-107.95920000
5.39999997	-107.95920000
5.43999997	-107.95920000
5.47999997	-98.97152000
5.51999997	-94.48530000
5.55999997	-89.98383000
5.59999997	-81.01138000
5.63999997	-72.02368000
5.67999997	-67.52220000
5.71999997	-54.04828000
5.75999996	-49.56206000
5.79999996	-36.08813000
5.83999996	-27.10044000
5.87999996	-18.11273000
5.91999996	-4.63881300
5.95999996	4.33362800
5.99999996	13.32133000
6.03999996	22.29377000
6.07999996	35.78295000
6.11999996	44.75539000
6.15999996	53.74309000
6.19999996	58.24457000
6.23999996	67.21701000
6.27999996	76.20471000
6.31999996	80.70620000
6.35999996	85.19241000
6.39999996	89.67863000
6.43999996	98.66634000
6.47999996	98.66634000
6.51999996	98.66634000
6.55999996	103.15250000
6.59999996	103.15250000
6.63999996	103.15250000
6.67999996	103.15250000
6.71999996	98.66634000
6.75999996	98.66634000
6.79999996	94.18011000
6.83999996	85.19241000
6.87999996	85.19241000
6.91999996	76.20471000
6.95999996	67.21701000
6.99999996	62.73079000
7.03999996	53.74309000
7.07999996	44.75539000
7.11999996	35.78295000
7.15999996	26.79525000
7.19999996	17.80755000
7.23999996	4.33362800
7.27999996	-4.63881300
7.31999996	-13.62651000
7.35999996	-22.59896000
7.39999996	-36.08813000
7.43999995	-40.57436000
7.47999995	-54.04828000
7.51999995	-58.54976000
7.55999995	-72.02368000
7.59999995	-76.50990000
7.63999995	-85.49760000
7.67999995	-89.98383000
7.71999995	-94.48530000
7.75999995	-98.97152000
7.79999995	-103.45770000
7.83999995	-107.95920000
7.87999995	-107.95920000
7.91999995	-107.95920000
7.95999995	-103.45770000
7.99999995	-107.95920000
8.03999995	-103.45770000
8.07999995	-98.97152000
8.11999995	-98.97152000
8.15999995	-94.48530000
8.19999995	-89.98383000
8.23999995	-81.01138000
8.27999995	-76.50990000
8.31999995	-72.02368000
8.35999995	-58.54976000
8.39999995	-54.04828000
8.43999995	-45.06058000
8.47999995	-36.08813000
8.51999995	-27.10044000
8.55999995	-18.11273000
8.59999995	-4.63881300
8.63999995	-0.15259250
8.67999995	8.81984900
8.71999995	26.79525000
8.75999995	35.78295000
8.79999995	40.26917000
8.83999995	49.25687000
8.87999995	53.74309000
8.91999995	67.21701000
8.95999995	71.71850000
8.99999995	76.20471000
9.03999995	85.19241000
9.07999994	89.67863000
9.11999994	89.67863000
9.15999994	94.18011000
9.19999994	98.66634000
9.23999994	98.66634000
9.27999994	98.66634000
9.31999994	98.66634000
9.35999994	94.18011000
9.39999994	89.67863000
9.43999994	89.67863000
9.47999994	85.19241000
9.51999994	80.70620000
9.55999994	76.20471000
9.59999994	71.71850000
9.63999994	67.21701000
9.67999994	53.74309000
9.71999994	49.25687000
9.75999994	35.78295000
9.79999994	31.28147000
9.83999994	22.29377000
9.87999994	13.32133000
9.91999994	-0.15259250
9.95999994	-4.63881300
9.99999994	-13.62651000
10.03999994	-22.59896000
10.07999994	-31.58666000
10.11999994	-40.57436000
10.15999994	-49.56206000
10.19999994	-58.54976000
10.23999994	-63.03598000
10.27999994	-72.02368000
10.31999994	-76.50990000
10.35999994	-85.49760000
10.39999994	-89.98383000
10.43999994	-94.48530000
10.47999994	-98.97152000
10.51999994	-103.45770000
10.55999994	-103.45770000
10.59999994	-98.97152000
10.63999994	-103.45770000
10.67999994	-98.97152000
10.71999993	-98.97152000
10.75999993	-94.48530000
10.79999993	-89.98383000
10.83999993	-89.98383000
10.87999993	-81.01138000
10.91999993	-76.50990000
10.95999993	-72.02368000
10.99999993	-63.03598000
11.03999993	-54.04828000
11.07999993	-45.06058000
11.11999993	-40.57436000
11.15999993	-31.58666000
11.19999993	-22.59896000
11.23999993	-18.11273000
11.27999993	-4.63881300
11.31999993	4.33362800
11.35999993	13.32133000
11.39999993	17.80755000
11.43999993	31.28147000
11.47999993	35.78295000
11.51999993	44.75539000
11.55999993	53.74309000
11.59999993	62.73079000
11.63999993	67.21701000
11.67999993	71.71850000
11.71999993	80.70620000
11.75999993	80.70620000
11.79999993	89.67863000
11.83999993	89.67863000
11.87999993	89.67863000
11.91999993	94.18011000
11.95999993	89.67863000
11.99999993	94.18011000
12.03999993	89.67863000
12.07999993	89.67863000
12.11999993	85.19241000
12.15999993	80.70620000
12.19999993	76.20471000
12.23999993	71.71850000
12.27999993	67.21701000
12.31999993	58.24457000
12.35999992	49.25687000
12.39999992	44.75539000
12.43999992	35.78295000
12.47999992	26.79525000
12.51999992	17.80755000
12.55999992	8.81984900
12.59999992	-0.15259250
12.63999992	-4.63881300
12.67999992	-13.62651000
12.71999992	-22.59896000
12.75999992	-31.58666000
12.79999992	-40.57436000
12.83999992	-49.56206000
12.87999992	-54.04828000
12.91999992	-63.03598000
12.95999992	-72.02368000
12.99999992	-72.02368000
13.03999992	-81.01138000
13.07999992	-85.49760000
13.11999992	-89.98383000
13.15999992	-89.98383000
13.19999992	-94.48530000
13.23999992	-94.48530000
13.27999992	-94.48530000
13.31999992	-98.97152000
13.35999992	-94.48530000
13.39999992	-94.48530000
13.43999992	-89.98383000
13.47999992	-89.98383000
13.51999992	-89.98383000
13.55999992	-81.01138000
13.59999992	-72.02368000
13.63999992	-67.52220000
13.67999992	-58.54976000
13.71999992	-54.04828000
13.75999992	-45.06058000
13.79999992	-36.08813000
13.83999992	-31.58666000
13.87999992	-18.11273000
13.91999992	-13.62651000
13.95999992	-0.15259250
13.99999991	4.33362800
14.03999991	13.32133000
14.07999991	22.29377000
14.11999991	31.28147000
14.15999991	35.78295000
14.19999991	44.75539000
14.23999991	49.25687000
14.27999991	58.24457000
14.31999991	62.73079000
14.35999991	71.71850000
14.39999991	71.71850000
14.43999991	76.20471000
14.47999991	80.70620000
14.51999991	85.19241000
14.55999991	85.19241000
14.59999991	85.19241000
14.63999991	85.19241000
14.67999991	85.19241000
14.71999991	85.19241000
14.75999991	80.70620000
14.79999991	80.70620000
14.83999991	76.20471000
14.87999991	71.71850000
14.91999991	67.21701000
14.95999991	62.73079000
14.99999991	53.74309000
15.03999991	49.25687000
15.07999991	40.26917000
15.11999991	31.28147000
15.15999991	26.79525000
15.19999991	13.32133000
15.23999991	8.81984900
15.27999991	-0.15259250
15.31999991	-9.12503300
15.35999991	-18.11273000
15.39999991	-22.59896000
15.43999991	-31.58666000
15.47999991	-40.57436000
15.51999991	-45.06058000
15.55999991	-54.04828000
15.59999991	-58.54976000
15.63999990	-67.52220000
15.67999990	-72.02368000
15.71999990	-76.50990000
15.75999990	-81.01138000
15.79999990	-85.49760000
15.83999990	-89.98383000
15.87999990	-89.98383000
15.91999990	-89.98383000
15.95999990	-89.98383000
15.99999990	-89.98383000
16.03999990	-89.98383000
16.07999990	-89.98383000
16.11999990	-85.49760000
16.15999990	-81.01138000
16.19999990	-76.50990000
16.23999990	-72.02368000
16.27999990	-67.52220000
16.31999990	-63.03598000
16.35999990	-54.04828000
16.39999990	-49.56206000
16.43999990	-40.57436000
16.47999990	-36.08813000
16.51999990	-27.10044000
16.55999990	-18.11273000
16.59999990	-9.12503300
16.63999990	-0.15259250
16.67999990	4.33362800
16.71999990	13.32133000
16.75999990	17.80755000
16.79999990	31.28147000
16.83999990	35.78295000
16.87999990	40.26917000
16.91999990	49.25687000
16.95999990	53.74309000
16.99999990	62.73079000
17.03999990	67.21701000
17.07999990	71.71850000
17.11999990	71.71850000
17.15999990	76.20471000
17.19999990	76.20471000
17.23999990	80.70620000
17.27999989	80.70620000
17.31999989	80.70620000
17.35999989	80.70620000
17.39999989	80.70620000
17.43999989	76.20471000
17.47999989	71.71850000
17.51999989	71.71850000
17.55999989	67.21701000
17.59999989	62.73079000
17.63999989	53.74309000
17.67999989	49.25687000
17.71999989	44.75539000
17.75999989	35.78295000
17.79999989	31.28147000
17.83999989	22.29377000
17.87999989	13.32133000
17.91999989	4.33362800
17.95999989	-0.15259250
17.99999989	-9.12503300
18.03999989	-18.11273000
18.07999989	-22.59896000
18.11999989	-31.58666000
18.15999989	-40.57436000
18.19999989	-45.06058000
18.23999989	-54.04828000
18.27999989	-58.54976000
18.31999989	-63.03598000
18.35999989	-72.02368000
18.39999989	-72.02368000
18.43999989	-76.50990000
18.47999989	-89.98383000
18.51999989	-89.98383000
18.55999989	-81.01138000
18.59999989	-81.01138000
18.63999989	-89.98383000
18.67999989	-89.98383000
18.71999989	-85.49760000
18.75999989	-81.01138000
18.79999989	-81.01138000
18.83999989	-76.50990000
18.87999989	-76.50990000
18.91999989	-67.52220000
18.95999988	-63.03598000
18.99999988	-58.54976000
19.03999988	-54.04828000
19.07999988	-45.06058000
19.11999988	-40.57436000
19.15999988	-31.58666000
19.19999988	-22.59896000
19.23999988	-18.11273000
19.27999988	-9.12503300
19.31999988	-0.15259250
19.35999988	4.33362800
19.39999988	13.32133000
19.43999988	17.80755000
19.47999988	26.79525000
19.51999988	35.78295000
19.55999988	40.26917000
19.59999988	44.75539000
19.63999988	53.74309000
19.67999988	62.73079000
19.71999988	62.73079000
19.75999988	67.21701000
19.79999988	71.71850000
19.83999988	71.71850000
19.87999988	76.20471000
19.91999988	76.20471000
19.95999988	76.20471000
19.99999988	76.20471000
20.03999988	76.20471000
20.07999988	71.71850000
20.11999988	71.71850000
20.15999988	71.71850000
20.19999988	62.73079000
20.23999988	62.73079000
20.27999988	53.74309000
20.31999988	53.74309000
20.35999988	44.75539000
20.39999988	40.26917000
20.43999988	35.78295000
20.47999988	26.79525000
20.51999988	17.80755000
20.55999988	13.32133000
20.59999987	4.33362800
20.63999987	-0.15259250
20.67999987	-9.12503300
20.71999987	-18.11273000
20.75999987	-22.59896000
20.79999987	-31.58666000
20.83999987	-36.08813000
20.87999987	-45.06058000
20.91999987	-54.04828000
20.95999987	-58.54976000
20.99999987	-63.03598000
21.03999987	-67.52220000
21.07999987	-72.02368000
21.11999987	-72.02368000
21.15999987	-76.50990000
21.19999987	-81.01138000
21.23999987	-81.01138000
21.27999987	-85.49760000
21.31999987	-81.01138000
21.35999987	-81.01138000
21.39999987	-81.01138000
21.43999987	-81.01138000
21.47999987	-76.50990000
21.51999987	-72.02368000
21.55999987	-72.02368000
21.59999987	-63.03598000
21.63999987	-58.54976000
21.67999987	-54.04828000
21.71999987	-49.56206000
21.75999987	-40.57436000
21.79999987	-36.08813000
21.83999987	-27.10044000
21.87999987	-22.59896000
21.91999987	-13.62651000
21.95999987	-9.12503300
21.99999987	-0.15259250
22.03999987	4.33362800
22.07999987	13.32133000
22.11999987	17.80755000
22.15999987	26.79525000
22.19999987	31.28147000
22.23999986	40.26917000
22.27999986	44.75539000
22.31999986	49.25687000
22.35999986	53.74309000
22.39999986	62.73079000
22.43999986	62.73079000
22.47999986	67.21701000
22.51999986	71.71850000
22.55999986	71.71850000
22.59999986	71.71850000
22.63999986	71.71850000
22.67999986	71.71850000
22.71999986	71.71850000
22.75999986	71.71850000
22.79999986	67.21701000
22.83999986	67.21701000
22.87999986	62.73079000
22.91999986	58.24457000
22.95999986	53.74309000
22.99999986	49.25687000
23.03999986	40.26917000
23.07999986	35.78295000
23.11999986	31.28147000
23.15999986	22.29377000
23.19999986	17.80755000
23.23999986	8.81984900
23.27999986	-0.15259250
23.31999986	-0.15259250
23.35999986	-13.62651000
23.39999986	-18.11273000
23.43999986	-22.59896000
23.47999986	-31.58666000
23.51999986	-36.08813000
23.55999986	-40.57436000
23.59999986	-49.56206000
23.63999986	-54.04828000
23.67999986	-58.54976000
23.71999986	-63.03598000
23.75999986	-67.52220000
23.79999986	-72.02368000
23.83999986	-72.02368000
23.87999985	-76.50990000
23.91999985	-76.50990000
23.95999985	-76.50990000
23.99999985	-81.01138000
24.03999985	-76.50990000
24.07999985	-76.50990000
24.11999985	-76.50990000
24.15999985	-72.02368000
24.19999985	-72.02368000
24.23999985	-67.52220000
24.27999985	-58.54976000
24.31999985	-58.54976000
24.35999985	-49.56206000
24.39999985	-45.06058000
24.43999985	-40.57436000
24.47999985	-36.08813000
24.51999985	-27.10044000
24.55999985	-18.11273000
24.59999985	-13.62651000
24.63999985	-9.12503300
24.67999985	-0.15259250
24.71999985	8.81984900
24.75999985	13.32133000
24.79999985	17.80755000
24.83999985	26.79525000
24.87999985	31.28147000
24.91999985	44.75539000
24.95999985	71.71850000
24.99999985	85.19241000
25.03999985	76.20471000
25.07999985	62.73079000
25.11999985	58.24457000
25.15999985	53.74309000
25.19999985	35.78295000
25.23999985	17.80755000
25.27999985	13.32133000
25.31999985	26.79525000
25.35999985	49.25687000
25.39999985	62.73079000
25.43999985	62.73079000
25.47999985	67.21701000
25.51999984	76.20471000
25.55999984	80.70620000
25.59999984	71.71850000
25.63999984	53.74309000
25.67999984	49.25687000
25.71999984	49.25687000
25.75999984	44.75539000
25.79999984	35.78295000
25.83999984	26.79525000
25.87999984	17.80755000
25.91999984	17.80755000
25.95999984	8.81984900
25.99999984	-0.15259250
26.03999984	-9.12503300
26.07999984	-18.11273000
26.11999984	-27.10044000
26.15999984	-36.08813000
26.19999984	-45.06058000
26.23999984	-58.54976000
26.27999984	-67.52220000
26.31999984	-67.52220000
26.35999984	-67.52220000
26.39999984	-67.52220000
26.43999984	-72.02368000
26.47999984	-67.52220000
26.51999984	-63.03598000
26.55999984	-63.03598000
26.59999984	-63.03598000
26.63999984	-67.52220000
26.67999984	-72.02368000
26.71999984	-72.02368000
26.75999984	-72.02368000
26.79999984	-72.02368000
26.83999984	-72.02368000
26.87999984	-63.03598000
26.91999984	-58.54976000
26.95999984	-54.04828000
26.99999984	-49.56206000
27.03999984	-49.56206000
27.07999984	-45.06058000
27.11999984	-40.57436000
27.15999983	-36.08813000
27.19999983	-36.08813000
27.23999983	-31.58666000
27.27999983	-22.59896000
27.31999983	-13.62651000
27.35999983	-0.15259250
27.39999983	8.81984900
27.43999983	17.80755000
27.47999983	26.79525000
27.51999983	31.28147000
27.55999983	40.26917000
27.59999983	62.73079000
27.63999983	89.67863000
27.67999983	134.60190000
27.71999983	192.99900000
27.75999983	269.37160000
27.79999983	318.78110000
27.83999983	377.17820000
27.87999983	435.57540000
27.91999983	444.56310000
27.95999983	431.08920000
27.99999983	404.14130000
28.03999983	341.24270000
28.07999983	278.35930000
28.11999983	210.97440000
28.15999983	134.60190000
28.19999983	67.21701000
28.23999983	-0.15259250
28.27999983	-58.54976000
28.31999983	-130.42080000
28.35999983	-179.83030000
28.39999983	-224.75350000
28.43999983	-256.20290000
28.47999983	-287.65220000
28.51999983	-287.65220000
28.55999983	-287.65220000
28.59999983	-265.19060000
28.63999983	-256.20290000
28.67999983	-242.72890000
28.71999983	-233.74130000
28.75999983	-220.26730000
28.79999982	-215.76590000
28.83999982	-211.27960000
28.87999982	-202.29190000
28.91999982	-197.80570000
28.95999982	-197.80570000
28.99999982	-197.80570000
29.03999982	-197.80570000
29.07999982	-206.77810000
29.11999982	-211.27960000
29.15999982	-211.27960000
29.19999982	-206.77810000
29.23999982	-206.77810000
29.27999982	-197.80570000
29.31999982	-179.83030000
29.35999982	-166.35640000
29.39999982	-143.89480000
29.43999982	-125.91940000
29.47999982	-103.45770000
29.51999982	-81.01138000
29.55999982	-54.04828000
29.59999982	-27.10044000
29.63999982	4.33362800
29.67999982	44.75539000
29.71999982	89.67863000
29.75999982	143.58960000
29.79999982	201.98670000
29.83999982	251.39620000
29.87999982	282.84560000
29.91999982	309.79340000
29.95999982	314.29490000
29.99999982	318.78110000
30.03999982	318.78110000
30.07999982	323.28260000
30.11999982	300.82090000
30.15999982	305.30720000
30.19999982	305.30720000
30.23999982	300.82090000
30.27999982	287.34700000
30.31999982	282.84560000
30.35999982	269.37160000
30.39999982	260.38390000
30.43999982	242.42380000
30.47999981	219.96210000
30.51999981	197.50050000
30.55999981	179.52510000
30.59999981	152.57730000
30.63999981	125.61420000
30.67999981	98.66634000
30.71999981	67.21701000
30.75999981	31.28147000
30.79999981	-4.63881300
30.83999981	-54.04828000
30.87999981	-107.95920000
30.91999981	-166.35640000
30.95999981	-215.76590000
30.99999981	-251.70140000
31.03999981	-278.66450000
31.07999981	-287.65220000
31.11999981	-283.15070000
31.15999981	-274.16300000
31.19999981	-260.68910000
31.23999981	-242.72890000
31.27999981	-229.23980000
31.31999981	-211.27960000
31.35999981	-197.80570000
31.39999981	-193.30420000
31.43999981	-188.81800000
31.47999981	-188.81800000
