Time	Channel A
(us)	(mV)

0.00000000	224.44840000
0.04000000	219.96210000
0.08000000	219.96210000
0.12000000	219.96210000
0.16000000	219.96210000
0.20000000	215.46070000
0.24000000	210.97440000
0.28000000	206.47300000
0.32000000	197.50050000
0.36000000	188.51280000
0.40000000	175.03890000
0.44000000	157.06350000
0.48000000	134.60190000
0.52000000	116.64170000
0.56000000	89.67863000
0.60000000	62.73079000
0.64000000	31.28147000
0.68000000	4.33362800
0.72000000	-27.10044000
0.76000000	-54.04828000
0.80000000	-85.49760000
0.83999999	-107.95920000
0.87999999	-130.42080000
0.91999999	-152.88250000
0.95999999	-170.84260000
0.99999999	-184.33180000
1.03999999	-197.80570000
1.07999999	-211.27960000
1.11999999	-215.76590000
1.15999999	-220.26730000
1.19999999	-224.75350000
1.23999999	-224.75350000
1.27999999	-220.26730000
1.31999999	-220.26730000
1.35999999	-220.26730000
1.39999999	-215.76590000
1.43999999	-211.27960000
1.47999999	-206.77810000
1.51999999	-202.29190000
1.55999999	-197.80570000
1.59999999	-188.81800000
1.63999999	-179.83030000
1.67999999	-170.84260000
1.71999999	-157.36870000
1.75999999	-143.89480000
1.79999999	-125.91940000
1.83999999	-107.95920000
1.87999999	-85.49760000
1.91999999	-63.03598000
1.95999999	-40.57436000
1.99999999	-13.62651000
2.03999999	13.32133000
2.07999999	40.26917000
2.11999999	67.21701000
2.15999999	89.67863000
2.19999999	116.64170000
2.23999999	139.10340000
2.27999999	161.56500000
2.31999999	179.52510000
2.35999999	192.99900000
2.39999999	206.47300000
2.43999999	215.46070000
2.47999998	224.44840000
2.51999998	228.93460000
2.55999998	228.93460000
2.59999998	233.43610000
2.63999998	228.93460000
2.67999998	228.93460000
2.71999998	224.44840000
2.75999998	219.96210000
2.79999998	210.97440000
2.83999998	206.47300000
2.87999998	197.50050000
2.91999998	192.99900000
2.95999998	179.52510000
2.99999998	170.53740000
3.03999998	157.06350000
3.07999998	143.58960000
3.11999998	130.11560000
3.15999998	116.64170000
3.19999998	94.18011000
3.23999998	71.71850000
3.27999998	53.74309000
3.31999998	31.28147000
3.35999998	4.33362800
3.39999998	-18.11273000
3.43999998	-40.57436000
3.47999998	-67.52220000
3.51999998	-94.48530000
3.55999998	-112.44540000
3.59999998	-134.90710000
3.63999998	-157.36870000
3.67999998	-175.34410000
3.71999998	-184.33180000
3.75999998	-202.29190000
3.79999998	-211.27960000
3.83999998	-215.76590000
3.87999998	-224.75350000
3.91999998	-224.75350000
3.95999998	-224.75350000
3.99999998	-220.26730000
4.03999998	-220.26730000
4.07999998	-215.76590000
4.11999997	-211.27960000
4.15999997	-202.29190000
4.19999997	-193.30420000
4.23999997	-184.33180000
4.27999997	-175.34410000
4.31999997	-161.87020000
4.35999997	-148.38100000
4.39999997	-134.90710000
4.43999997	-121.43310000
4.47999997	-107.95920000
4.51999997	-89.98383000
4.55999997	-72.02368000
4.59999997	-49.56206000
4.63999997	-31.58666000
4.67999997	-9.12503300
4.71999997	13.32133000
4.75999997	35.78295000
4.79999997	58.24457000
4.83999997	80.70620000
4.87999997	103.15250000
4.91999997	125.61420000
4.95999997	143.58960000
4.99999997	161.56500000
5.03999997	179.52510000
5.07999997	192.99900000
5.11999997	206.47300000
5.15999997	215.46070000
5.19999997	219.96210000
5.23999997	228.93460000
5.27999997	228.93460000
5.31999997	228.93460000
5.35999997	224.44840000
5.39999997	224.44840000
5.43999997	215.46070000
5.47999997	210.97440000
5.51999997	201.98670000
5.55999997	192.99900000
5.59999997	179.52510000
5.63999997	166.05120000
5.67999997	157.06350000
5.71999997	143.58960000
5.75999996	130.11560000
5.79999996	112.14030000
5.83999996	94.18011000
5.87999996	76.20471000
5.91999996	58.24457000
5.95999996	40.26917000
5.99999996	13.32133000
6.03999996	-22.59896000
6.07999996	-54.04828000
6.11999996	-63.03598000
6.15999996	-58.54976000
6.19999996	-81.01138000
6.23999996	-98.97152000
6.27999996	-98.97152000
6.31999996	-98.97152000
6.35999996	-107.95920000
6.39999996	-134.90710000
6.43999996	-170.84260000
6.47999996	-197.80570000
6.51999996	-206.77810000
6.55999996	-215.76590000
6.59999996	-233.74130000
6.63999996	-242.72890000
6.67999996	-233.74130000
6.71999996	-215.76590000
6.75999996	-215.76590000
6.79999996	-215.76590000
6.83999996	-211.27960000
6.87999996	-193.30420000
6.91999996	-179.83030000
6.95999996	-170.84260000
6.99999996	-161.87020000
7.03999996	-148.38100000
7.07999996	-130.42080000
7.11999996	-112.44540000
7.15999996	-89.98383000
7.19999996	-72.02368000
7.23999996	-54.04828000
7.27999996	-31.58666000
7.31999996	-4.63881300
7.35999996	13.32133000
7.39999996	31.28147000
7.43999995	49.25687000
7.47999995	62.73079000
7.51999995	80.70620000
7.55999995	94.18011000
7.59999995	107.65400000
7.63999995	121.12800000
7.67999995	139.10340000
7.71999995	157.06350000
7.75999995	175.03890000
7.79999995	188.51280000
7.83999995	201.98670000
7.87999995	210.97440000
7.91999995	215.46070000
7.95999995	219.96210000
7.99999995	215.46070000
8.03999995	215.46070000
8.07999995	215.46070000
8.11999995	210.97440000
8.15999995	206.47300000
8.19999995	197.50050000
8.23999995	188.51280000
8.27999995	179.52510000
8.31999995	170.53740000
8.35999995	157.06350000
8.39999995	139.10340000
8.43999995	121.12800000
8.47999995	103.15250000
8.51999995	85.19241000
8.55999995	62.73079000
8.59999995	49.25687000
8.63999995	26.79525000
8.67999995	8.81984900
8.71999995	-9.12503300
8.75999995	-27.10044000
8.79999995	-49.56206000
8.83999995	-67.52220000
8.87999995	-85.49760000
8.91999995	-98.97152000
8.95999995	-116.94690000
8.99999995	-134.90710000
9.03999995	-148.38100000
9.07999994	-161.87020000
9.11999994	-175.34410000
9.15999994	-184.33180000
9.19999994	-193.30420000
9.23999994	-197.80570000
9.27999994	-197.80570000
9.31999994	-202.29190000
9.35999994	-202.29190000
9.39999994	-202.29190000
9.43999994	-202.29190000
9.47999994	-197.80570000
9.51999994	-193.30420000
9.55999994	-184.33180000
9.59999994	-170.84260000
9.63999994	-161.87020000
9.67999994	-148.38100000
9.71999994	-134.90710000
9.75999994	-116.94690000
9.79999994	-103.45770000
9.83999994	-85.49760000
9.87999994	-67.52220000
9.91999994	-49.56206000
9.95999994	-31.58666000
9.99999994	-13.62651000
10.03999994	4.33362800
10.07999994	22.29377000
10.11999994	44.75539000
10.15999994	62.73079000
10.19999994	76.20471000
10.23999994	94.18011000
10.27999994	112.14030000
10.31999994	130.11560000
10.35999994	143.58960000
10.39999994	157.06350000
10.43999994	170.53740000
10.47999994	179.52510000
10.51999994	188.51280000
10.55999994	192.99900000
10.59999994	197.50050000
10.63999994	206.47300000
10.67999994	206.47300000
10.71999993	201.98670000
10.75999993	201.98670000
10.79999993	197.50050000
10.83999993	192.99900000
10.87999993	184.02660000
10.91999993	179.52510000
10.95999993	166.05120000
10.99999993	157.06350000
11.03999993	143.58960000
11.07999993	125.61420000
11.11999993	112.14030000
11.15999993	94.18011000
11.19999993	76.20471000
11.23999993	62.73079000
11.27999993	44.75539000
11.31999993	26.79525000
11.35999993	4.33362800
11.39999993	-9.12503300
11.43999993	-27.10044000
11.47999993	-49.56206000
11.51999993	-67.52220000
11.55999993	-81.01138000
11.59999993	-98.97152000
11.63999993	-112.44540000
11.67999993	-130.42080000
11.71999993	-143.89480000
11.75999993	-157.36870000
11.79999993	-166.35640000
11.83999993	-175.34410000
11.87999993	-184.33180000
11.91999993	-188.81800000
11.95999993	-193.30420000
11.99999993	-197.80570000
12.03999993	-197.80570000
12.07999993	-197.80570000
12.11999993	-193.30420000
12.15999993	-184.33180000
12.19999993	-179.83030000
12.23999993	-170.84260000
12.27999993	-161.87020000
12.31999993	-148.38100000
12.35999992	-139.40860000
12.39999992	-125.91940000
12.43999992	-107.95920000
12.47999992	-94.48530000
12.51999992	-76.50990000
12.55999992	-63.03598000
12.59999992	-45.06058000
12.63999992	-27.10044000
12.67999992	-9.12503300
12.71999992	8.81984900
12.75999992	26.79525000
12.79999992	44.75539000
12.83999992	62.73079000
12.87999992	76.20471000
12.91999992	94.18011000
12.95999992	112.14030000
12.99999992	125.61420000
13.03999992	139.10340000
13.07999992	152.57730000
13.11999992	161.56500000
13.15999992	175.03890000
13.19999992	179.52510000
13.23999992	188.51280000
13.27999992	192.99900000
13.31999992	192.99900000
13.35999992	197.50050000
13.39999992	197.50050000
13.43999992	192.99900000
13.47999992	188.51280000
13.51999992	179.52510000
13.55999992	179.52510000
13.59999992	170.53740000
13.63999992	157.06350000
13.67999992	143.58960000
13.71999992	130.11560000
13.75999992	116.64170000
13.79999992	103.15250000
13.83999992	85.19241000
13.87999992	71.71850000
13.91999992	53.74309000
13.95999992	35.78295000
13.99999991	17.80755000
14.03999991	-0.15259250
14.07999991	-13.62651000
14.11999991	-31.58666000
14.15999991	-49.56206000
14.19999991	-63.03598000
14.23999991	-81.01138000
14.27999991	-94.48530000
14.31999991	-112.44540000
14.35999991	-125.91940000
14.39999991	-134.90710000
14.43999991	-148.38100000
14.47999991	-157.36870000
14.51999991	-166.35640000
14.55999991	-175.34410000
14.59999991	-179.83030000
14.63999991	-184.33180000
14.67999991	-184.33180000
14.71999991	-184.33180000
14.75999991	-184.33180000
14.79999991	-184.33180000
14.83999991	-179.83030000
14.87999991	-170.84260000
14.91999991	-161.87020000
14.95999991	-152.88250000
14.99999991	-143.89480000
15.03999991	-130.42080000
15.07999991	-116.94690000
15.11999991	-103.45770000
15.15999991	-89.98383000
15.19999991	-72.02368000
15.23999991	-54.04828000
15.27999991	-40.57436000
15.31999991	-22.59896000
15.35999991	-4.63881300
15.39999991	13.32133000
15.43999991	31.28147000
15.47999991	44.75539000
15.51999991	62.73079000
15.55999991	76.20471000
15.59999991	89.67863000
15.63999990	107.65400000
15.67999990	121.12800000
15.71999990	134.60190000
15.75999990	143.58960000
15.79999990	157.06350000
15.83999990	161.56500000
15.87999990	170.53740000
15.91999990	179.52510000
15.95999990	184.02660000
15.99999990	184.02660000
16.03999990	184.02660000
16.07999990	184.02660000
16.11999990	184.02660000
16.15999990	179.52510000
16.19999990	175.03890000
16.23999990	170.53740000
16.27999990	161.56500000
16.31999990	148.07580000
16.35999990	139.10340000
16.39999990	125.61420000
16.43999990	116.64170000
16.47999990	98.66634000
16.51999990	80.70620000
16.55999990	67.21701000
16.59999990	53.74309000
16.63999990	35.78295000
16.67999990	17.80755000
16.71999990	-0.15259250
16.75999990	-18.11273000
16.79999990	-31.58666000
16.83999990	-49.56206000
16.87999990	-63.03598000
16.91999990	-76.50990000
16.95999990	-94.48530000
16.99999990	-107.95920000
17.03999990	-116.94690000
17.07999990	-130.42080000
17.11999990	-143.89480000
17.15999990	-152.88250000
17.19999990	-161.87020000
17.23999990	-166.35640000
17.27999989	-170.84260000
17.31999989	-175.34410000
17.35999989	-179.83030000
17.39999989	-175.34410000
17.43999989	-175.34410000
17.47999989	-170.84260000
17.51999989	-166.35640000
17.55999989	-161.87020000
17.59999989	-152.88250000
17.63999989	-143.89480000
17.67999989	-134.90710000
17.71999989	-125.91940000
17.75999989	-107.95920000
17.79999989	-98.97152000
17.83999989	-81.01138000
17.87999989	-67.52220000
17.91999989	-54.04828000
17.95999989	-36.08813000
17.99999989	-18.11273000
18.03999989	-4.63881300
18.07999989	13.32133000
18.11999989	31.28147000
18.15999989	44.75539000
18.19999989	62.73079000
18.23999989	76.20471000
18.27999989	89.67863000
18.31999989	107.65400000
18.35999989	116.64170000
18.39999989	125.61420000
18.43999989	139.10340000
18.47999989	148.07580000
18.51999989	157.06350000
18.55999989	166.05120000
18.59999989	170.53740000
18.63999989	175.03890000
18.67999989	175.03890000
18.71999989	179.52510000
18.75999989	179.52510000
18.79999989	175.03890000
18.83999989	170.53740000
18.87999989	161.56500000
18.91999989	157.06350000
18.95999988	148.07580000
18.99999988	139.10340000
19.03999988	130.11560000
19.07999988	116.64170000
19.11999988	103.15250000
19.15999988	89.67863000
19.19999988	76.20471000
19.23999988	62.73079000
19.27999988	44.75539000
19.31999988	31.28147000
19.35999988	13.32133000
19.39999988	-0.15259250
19.43999988	-18.11273000
19.47999988	-36.08813000
19.51999988	-49.56206000
19.55999988	-63.03598000
19.59999988	-76.50990000
19.63999988	-94.48530000
19.67999988	-107.95920000
19.71999988	-116.94690000
19.75999988	-130.42080000
19.79999988	-134.90710000
19.83999988	-143.89480000
19.87999988	-152.88250000
19.91999988	-157.36870000
19.95999988	-161.87020000
19.99999988	-166.35640000
20.03999988	-166.35640000
20.07999988	-166.35640000
20.11999988	-166.35640000
20.15999988	-161.87020000
20.19999988	-157.36870000
20.23999988	-152.88250000
20.27999988	-143.89480000
20.31999988	-134.90710000
20.35999988	-125.91940000
20.39999988	-112.44540000
20.43999988	-103.45770000
20.47999988	-89.98383000
20.51999988	-76.50990000
20.55999988	-63.03598000
20.59999987	-45.06058000
20.63999987	-36.08813000
20.67999987	-18.11273000
20.71999987	-0.15259250
20.75999987	13.32133000
20.79999987	31.28147000
20.83999987	44.75539000
20.87999987	62.73079000
20.91999987	71.71850000
20.95999987	89.67863000
20.99999987	103.15250000
21.03999987	112.14030000
21.07999987	125.61420000
21.11999987	134.60190000
21.15999987	139.10340000
21.19999987	139.10340000
21.23999987	139.10340000
21.27999987	143.58960000
21.31999987	143.58960000
21.35999987	148.07580000
21.39999987	161.56500000
21.43999987	175.03890000
21.47999987	184.02660000
21.51999987	188.51280000
21.55999987	188.51280000
21.59999987	184.02660000
21.63999987	175.03890000
21.67999987	152.57730000
21.71999987	130.11560000
21.75999987	107.65400000
21.79999987	89.67863000
21.83999987	71.71850000
21.87999987	53.74309000
21.91999987	40.26917000
21.95999987	26.79525000
21.99999987	17.80755000
22.03999987	-0.15259250
22.07999987	-9.12503300
22.11999987	-27.10044000
22.15999987	-40.57436000
22.19999987	-58.54976000
22.23999986	-72.02368000
22.27999986	-81.01138000
22.31999986	-94.48530000
22.35999986	-107.95920000
22.39999986	-112.44540000
22.43999986	-121.43310000
22.47999986	-125.91940000
22.51999986	-130.42080000
22.55999986	-134.90710000
22.59999986	-139.40860000
22.63999986	-143.89480000
22.67999986	-148.38100000
22.71999986	-152.88250000
22.75999986	-161.87020000
22.79999986	-161.87020000
22.83999986	-161.87020000
22.87999986	-157.36870000
22.91999986	-152.88250000
22.95999986	-143.89480000
22.99999986	-134.90710000
23.03999986	-121.43310000
23.07999986	-107.95920000
23.11999986	-94.48530000
23.15999986	-85.49760000
23.19999986	-72.02368000
23.23999986	-58.54976000
23.27999986	-45.06058000
23.31999986	-27.10044000
23.35999986	-13.62651000
23.39999986	4.33362800
23.43999986	17.80755000
23.47999986	40.26917000
23.51999986	53.74309000
23.55999986	67.21701000
23.59999986	80.70620000
23.63999986	94.18011000
23.67999986	103.15250000
23.71999986	112.14030000
23.75999986	121.12800000
23.79999986	125.61420000
23.83999986	134.60190000
23.87999985	143.58960000
23.91999985	143.58960000
23.95999985	148.07580000
23.99999985	152.57730000
24.03999985	157.06350000
24.07999985	157.06350000
24.11999985	157.06350000
24.15999985	152.57730000
24.19999985	148.07580000
24.23999985	143.58960000
24.27999985	139.10340000
24.31999985	134.60190000
24.35999985	121.12800000
24.39999985	116.64170000
24.43999985	103.15250000
24.47999985	94.18011000
24.51999985	80.70620000
24.55999985	71.71850000
24.59999985	53.74309000
24.63999985	40.26917000
24.67999985	22.29377000
24.71999985	8.81984900
24.75999985	-9.12503300
24.79999985	-22.59896000
24.83999985	-40.57436000
24.87999985	-54.04828000
24.91999985	-63.03598000
24.95999985	-76.50990000
24.99999985	-89.98383000
25.03999985	-98.97152000
25.07999985	-107.95920000
25.11999985	-116.94690000
25.15999985	-125.91940000
25.19999985	-134.90710000
25.23999985	-139.40860000
25.27999985	-143.89480000
25.31999985	-148.38100000
25.35999985	-148.38100000
25.39999985	-152.88250000
25.43999985	-148.38100000
25.47999985	-148.38100000
25.51999984	-143.89480000
25.55999984	-139.40860000
25.59999984	-130.42080000
25.63999984	-130.42080000
25.67999984	-116.94690000
25.71999984	-107.95920000
25.75999984	-98.97152000
25.79999984	-89.98383000
25.83999984	-81.01138000
25.87999984	-67.52220000
25.91999984	-54.04828000
25.95999984	-40.57436000
25.99999984	-27.10044000
26.03999984	-13.62651000
26.07999984	4.33362800
26.11999984	17.80755000
26.15999984	31.28147000
26.19999984	44.75539000
26.23999984	58.24457000
26.27999984	71.71850000
26.31999984	85.19241000
26.35999984	98.66634000
26.39999984	107.65400000
26.43999984	121.12800000
26.47999984	125.61420000
26.51999984	134.60190000
26.55999984	139.10340000
26.59999984	143.58960000
26.63999984	148.07580000
26.67999984	152.57730000
26.71999984	152.57730000
26.75999984	152.57730000
26.79999984	148.07580000
26.83999984	143.58960000
26.87999984	143.58960000
26.91999984	139.10340000
26.95999984	130.11560000
26.99999984	125.61420000
27.03999984	116.64170000
27.07999984	107.65400000
27.11999984	94.18011000
27.15999983	85.19241000
27.19999983	71.71850000
27.23999983	62.73079000
27.27999983	49.25687000
27.31999983	35.78295000
27.35999983	17.80755000
27.39999983	4.33362800
27.43999983	-9.12503300
27.47999983	-18.11273000
27.51999983	-36.08813000
27.55999983	-49.56206000
27.59999983	-63.03598000
27.63999983	-72.02368000
27.67999983	-85.49760000
27.71999983	-98.97152000
27.75999983	-107.95920000
27.79999983	-112.44540000
27.83999983	-125.91940000
27.87999983	-130.42080000
27.91999983	-134.90710000
27.95999983	-139.40860000
27.99999983	-143.89480000
28.03999983	-143.89480000
28.07999983	-143.89480000
28.11999983	-143.89480000
28.15999983	-139.40860000
28.19999983	-134.90710000
28.23999983	-134.90710000
28.27999983	-125.91940000
28.31999983	-116.94690000
28.35999983	-112.44540000
28.39999983	-103.45770000
28.43999983	-94.48530000
28.47999983	-81.01138000
28.51999983	-72.02368000
28.55999983	-58.54976000
28.59999983	-45.06058000
28.63999983	-36.08813000
28.67999983	-18.11273000
28.71999983	-9.12503300
28.75999983	4.33362800
28.79999982	17.80755000
28.83999982	31.28147000
28.87999982	44.75539000
28.91999982	58.24457000
28.95999982	67.21701000
28.99999982	80.70620000
29.03999982	89.67863000
29.07999982	103.15250000
29.11999982	112.14030000
29.15999982	121.12800000
29.19999982	125.61420000
29.23999982	134.60190000
29.27999982	139.10340000
29.31999982	143.58960000
29.35999982	143.58960000
29.39999982	143.58960000
29.43999982	143.58960000
29.47999982	143.58960000
29.51999982	143.58960000
29.55999982	139.10340000
29.59999982	130.11560000
29.63999982	125.61420000
29.67999982	116.64170000
29.71999982	107.65400000
29.75999982	98.66634000
29.79999982	85.19241000
29.83999982	76.20471000
29.87999982	67.21701000
29.91999982	53.74309000
29.95999982	40.26917000
29.99999982	31.28147000
30.03999982	13.32133000
30.07999982	4.33362800
30.11999982	-9.12503300
30.15999982	-22.59896000
30.19999982	-36.08813000
30.23999982	-45.06058000
30.27999982	-58.54976000
30.31999982	-72.02368000
30.35999982	-81.01138000
30.39999982	-94.48530000
30.43999982	-103.45770000
30.47999981	-112.44540000
30.51999981	-116.94690000
30.55999981	-125.91940000
30.59999981	-130.42080000
30.63999981	-134.90710000
30.67999981	-134.90710000
30.71999981	-139.40860000
30.75999981	-139.40860000
30.79999981	-139.40860000
30.83999981	-134.90710000
30.87999981	-130.42080000
30.91999981	-125.91940000
