Time,Channel A
(us),(mV)

0.00000000,116.64170000
0.04000000,112.14030000
0.08000000,103.15250000
0.12000000,98.66634000
0.16000000,89.67863000
0.20000000,80.70620000
0.24000000,71.71850000
0.28000000,67.21701000
0.32000000,62.73079000
0.36000000,58.24457000
0.40000000,53.74309000
0.44000000,44.75539000
0.48000000,35.78295000
0.52000000,35.78295000
0.56000000,31.28147000
0.60000000,31.28147000
0.64000000,31.28147000
0.68000000,31.28147000
0.72000000,26.79525000
0.76000000,22.29377000
0.80000000,17.80755000
0.83999999,13.32133000
0.87999999,8.81984900
0.91999999,4.33362800
0.95999999,-0.15259250
0.99999999,-0.15259250
1.03999999,-4.63881300
1.07999999,-9.12503300
1.11999999,-13.62651000
1.15999999,-18.11273000
1.19999999,-13.62651000
1.23999999,-18.11273000
1.27999999,-18.11273000
1.31999999,-22.59896000
1.35999999,-27.10044000
1.39999999,-27.10044000
1.43999999,-27.10044000
1.47999999,-27.10044000
1.51999999,-27.10044000
1.55999999,-22.59896000
1.59999999,-18.11273000
1.63999999,-18.11273000
1.67999999,-13.62651000
1.71999999,-13.62651000
1.75999999,-9.12503300
1.79999999,-9.12503300
1.83999999,-4.63881300
1.87999999,-4.63881300
1.91999999,-4.63881300
1.95999999,-4.63881300
1.99999999,-0.15259250
2.03999999,-0.15259250
2.07999999,-0.15259250
2.11999999,4.33362800
2.15999999,8.81984900
2.19999999,13.32133000
2.23999999,13.32133000
2.27999999,13.32133000
2.31999999,17.80755000
2.35999999,17.80755000
2.39999999,17.80755000
2.43999999,17.80755000
2.47999998,17.80755000
2.51999998,17.80755000
2.55999998,17.80755000
2.59999998,17.80755000
2.63999998,17.80755000
2.67999998,22.29377000
2.71999998,22.29377000
2.75999998,26.79525000
2.79999998,22.29377000
2.83999998,22.29377000
2.87999998,22.29377000
2.91999998,17.80755000
2.95999998,17.80755000
2.99999998,13.32133000
3.03999998,13.32133000
3.07999998,13.32133000
3.11999998,13.32133000
3.15999998,13.32133000
3.19999998,8.81984900
3.23999998,4.33362800
3.27999998,4.33362800
3.31999998,4.33362800
3.35999998,4.33362800
3.39999998,-0.15259250
3.43999998,-0.15259250
3.47999998,-4.63881300
3.51999998,-4.63881300
3.55999998,-4.63881300
3.59999998,-9.12503300
3.63999998,-9.12503300
3.67999998,-9.12503300
3.71999998,-9.12503300
3.75999998,-13.62651000
3.79999998,-13.62651000
3.83999998,-18.11273000
3.87999998,-18.11273000
3.91999998,-18.11273000
3.95999998,-18.11273000
3.99999998,-18.11273000
4.03999998,-18.11273000
4.07999998,-18.11273000
4.11999997,-18.11273000
4.15999997,-18.11273000
4.19999997,-18.11273000
4.23999997,-18.11273000
4.27999997,-18.11273000
4.31999997,-18.11273000
4.35999997,-13.62651000
4.39999997,-13.62651000
4.43999997,-18.11273000
4.47999997,-13.62651000
4.51999997,-9.12503300
4.55999997,-9.12503300
4.59999997,-18.11273000
4.63999997,-4.63881300
4.67999997,-0.15259250
4.71999997,-0.15259250
4.75999997,-4.63881300
4.79999997,-4.63881300
4.83999997,-0.15259250
4.87999997,-0.15259250
4.91999997,-0.15259250
4.95999997,-0.15259250
4.99999997,-0.15259250
5.03999997,-0.15259250
5.07999997,-0.15259250
5.11999997,4.33362800
5.15999997,4.33362800
5.19999997,4.33362800
5.23999997,4.33362800
5.27999997,4.33362800
5.31999997,4.33362800
5.35999997,4.33362800
5.39999997,4.33362800
5.43999997,4.33362800
5.47999997,8.81984900
5.51999997,8.81984900
5.55999997,8.81984900
5.59999997,8.81984900
5.63999997,4.33362800
5.67999997,4.33362800
5.71999997,4.33362800
5.75999996,4.33362800
5.79999996,4.33362800
5.83999996,4.33362800
5.87999996,-0.15259250
5.91999996,-0.15259250
5.95999996,-0.15259250
5.99999996,-0.15259250
6.03999996,-0.15259250
6.07999996,-0.15259250
6.11999996,-4.63881300
6.15999996,-0.15259250
6.19999996,-4.63881300
6.23999996,-4.63881300
6.27999996,-4.63881300
6.31999996,-4.63881300
6.35999996,-9.12503300
6.39999996,-9.12503300
6.43999996,-9.12503300
6.47999996,-9.12503300
6.51999996,-9.12503300
6.55999996,-9.12503300
6.59999996,-9.12503300
6.63999996,-9.12503300
6.67999996,-9.12503300
6.71999996,-9.12503300
6.75999996,-13.62651000
6.79999996,-13.62651000
6.83999996,-13.62651000
6.87999996,-13.62651000
6.91999996,-13.62651000
6.95999996,-9.12503300
6.99999996,-9.12503300
7.03999996,-9.12503300
7.07999996,-9.12503300
7.11999996,-9.12503300
7.15999996,-9.12503300
7.19999996,-4.63881300
7.23999996,-9.12503300
7.27999996,-9.12503300
7.31999996,-4.63881300
7.35999996,-4.63881300
7.39999996,-4.63881300
7.43999995,-4.63881300
7.47999995,-4.63881300
7.51999995,-4.63881300
7.55999995,-4.63881300
7.59999995,-4.63881300
7.63999995,-0.15259250
7.67999995,-0.15259250
7.71999995,-0.15259250
7.75999995,-0.15259250
7.79999995,-0.15259250
7.83999995,-0.15259250
7.87999995,-0.15259250
7.91999995,-0.15259250
7.95999995,-0.15259250
7.99999995,-0.15259250
8.03999995,4.33362800
8.07999995,-0.15259250
8.11999995,-0.15259250
8.15999995,-0.15259250
8.19999995,-0.15259250
8.23999995,-0.15259250
8.27999995,-0.15259250
8.31999995,-0.15259250
8.35999995,-0.15259250
8.39999995,-0.15259250
8.43999995,-0.15259250
8.47999995,-0.15259250
8.51999995,-0.15259250
8.55999995,-0.15259250
8.59999995,-0.15259250
8.63999995,-0.15259250
8.67999995,-0.15259250
8.71999995,-0.15259250
8.75999995,-0.15259250
8.79999995,-4.63881300
8.83999995,-4.63881300
8.87999995,-4.63881300
8.91999995,-4.63881300
8.95999995,-4.63881300
8.99999995,-4.63881300
9.03999995,-4.63881300
9.07999994,-4.63881300
9.11999994,-4.63881300
9.15999994,-4.63881300
9.19999994,-9.12503300
9.23999994,-4.63881300
9.27999994,-9.12503300
9.31999994,-4.63881300
9.35999994,-4.63881300
9.39999994,-9.12503300
9.43999994,-9.12503300
9.47999994,-13.62651000
9.51999994,-9.12503300
9.55999994,-4.63881300
9.59999994,-4.63881300
9.63999994,-9.12503300
9.67999994,-9.12503300
9.71999994,-4.63881300
9.75999994,-4.63881300
9.79999994,-4.63881300
9.83999994,-4.63881300
9.87999994,-4.63881300
9.91999994,-9.12503300
9.95999994,-4.63881300
9.99999994,-4.63881300
10.03999994,-4.63881300
10.07999994,-4.63881300
10.11999994,-4.63881300
10.15999994,-4.63881300
10.19999994,-4.63881300
10.23999994,-0.15259250
10.27999994,-0.15259250
10.31999994,-0.15259250
10.35999994,-0.15259250
10.39999994,-0.15259250
10.43999994,-4.63881300
10.47999994,-0.15259250
10.51999994,-0.15259250
10.55999994,-0.15259250
10.59999994,-4.63881300
10.63999994,-0.15259250
10.67999994,-0.15259250
10.71999993,-0.15259250
10.75999993,-0.15259250
10.79999993,-0.15259250
10.83999993,-0.15259250
10.87999993,-0.15259250
10.91999993,-0.15259250
10.95999993,-0.15259250
10.99999993,-0.15259250
11.03999993,-0.15259250
11.07999993,-0.15259250
11.11999993,-0.15259250
11.15999993,-0.15259250
11.19999993,-0.15259250
11.23999993,-0.15259250
11.27999993,-0.15259250
11.31999993,-0.15259250
11.35999993,-0.15259250
11.39999993,-0.15259250
11.43999993,-0.15259250
11.47999993,-4.63881300
11.51999993,-0.15259250
11.55999993,-4.63881300
11.59999993,-4.63881300
11.63999993,-4.63881300
11.67999993,-4.63881300
11.71999993,-4.63881300
11.75999993,-4.63881300
11.79999993,-4.63881300
11.83999993,-4.63881300
11.87999993,-4.63881300
11.91999993,-4.63881300
11.95999993,-4.63881300
11.99999993,-4.63881300
12.03999993,-4.63881300
12.07999993,-4.63881300
12.11999993,-4.63881300
12.15999993,-4.63881300
12.19999993,-4.63881300
12.23999993,-4.63881300
12.27999993,-4.63881300
12.31999993,-4.63881300
12.35999992,-4.63881300
12.39999992,-4.63881300
12.43999992,-4.63881300
12.47999992,-4.63881300
12.51999992,-4.63881300
12.55999992,-4.63881300
12.59999992,-4.63881300
12.63999992,-4.63881300
12.67999992,-4.63881300
12.71999992,-4.63881300
12.75999992,-4.63881300
12.79999992,-4.63881300
12.83999992,-4.63881300
12.87999992,-4.63881300
12.91999992,-0.15259250
12.95999992,-4.63881300
12.99999992,-0.15259250
13.03999992,-0.15259250
13.07999992,-0.15259250
13.11999992,-0.15259250
13.15999992,-0.15259250
13.19999992,-0.15259250
13.23999992,-0.15259250
13.27999992,-0.15259250
13.31999992,-0.15259250
13.35999992,-0.15259250
13.39999992,-0.15259250
13.43999992,-0.15259250
13.47999992,-0.15259250
13.51999992,-0.15259250
13.55999992,-0.15259250
13.59999992,-0.15259250
13.63999992,-0.15259250
13.67999992,-0.15259250
13.71999992,-0.15259250
13.75999992,-0.15259250
13.79999992,-0.15259250
13.83999992,-0.15259250
13.87999992,-0.15259250
13.91999992,-0.15259250
13.95999992,-0.15259250
13.99999991,-0.15259250
14.03999991,-0.15259250
14.07999991,-4.63881300
14.11999991,-0.15259250
14.15999991,-0.15259250
14.19999991,-0.15259250
14.23999991,-0.15259250
14.27999991,-0.15259250
14.31999991,-0.15259250
14.35999991,-4.63881300
14.39999991,-0.15259250
14.43999991,-13.62651000
14.47999991,-4.63881300
14.51999991,4.33362800
14.55999991,-0.15259250
14.59999991,-4.63881300
14.63999991,-4.63881300
14.67999991,-4.63881300
14.71999991,-0.15259250
14.75999991,-4.63881300
14.79999991,-4.63881300
14.83999991,-4.63881300
14.87999991,-4.63881300
14.91999991,-4.63881300
14.95999991,-4.63881300
14.99999991,-0.15259250
15.03999991,-4.63881300
15.07999991,-4.63881300
15.11999991,-4.63881300
15.15999991,-4.63881300
15.19999991,-4.63881300
15.23999991,-4.63881300
15.27999991,-4.63881300
15.31999991,-0.15259250
15.35999991,-4.63881300
15.39999991,-4.63881300
15.43999991,-0.15259250
15.47999991,-0.15259250
15.51999991,-0.15259250
15.55999991,-4.63881300
15.59999991,-4.63881300
15.63999990,-4.63881300
15.67999990,-4.63881300
15.71999990,-0.15259250
15.75999990,-0.15259250
15.79999990,-0.15259250
15.83999990,-0.15259250
15.87999990,-0.15259250
15.91999990,-0.15259250
15.95999990,-0.15259250
15.99999990,-0.15259250
16.03999990,-0.15259250
16.07999990,-0.15259250
16.11999990,-0.15259250
16.15999990,-0.15259250
16.19999990,-0.15259250
16.23999990,-0.15259250
16.27999990,-0.15259250
16.31999990,-0.15259250
16.35999990,-0.15259250
16.39999990,-0.15259250
16.43999990,-0.15259250
16.47999990,-0.15259250
16.51999990,-0.15259250
16.55999990,-0.15259250
16.59999990,-0.15259250
16.63999990,-0.15259250
16.67999990,-4.63881300
16.71999990,-0.15259250
16.75999990,-0.15259250
16.79999990,-0.15259250
16.83999990,-0.15259250
16.87999990,-0.15259250
16.91999990,-4.63881300
16.95999990,-0.15259250
16.99999990,-0.15259250
17.03999990,-4.63881300
17.07999990,-4.63881300
17.11999990,-0.15259250
17.15999990,-0.15259250
17.19999990,-0.15259250
17.23999990,-0.15259250
17.27999989,-0.15259250
17.31999989,-0.15259250
17.35999989,-4.63881300
17.39999989,-4.63881300
17.43999989,-0.15259250
17.47999989,-0.15259250
17.51999989,-4.63881300
17.55999989,-4.63881300
17.59999989,-0.15259250
17.63999989,-0.15259250
17.67999989,-0.15259250
17.71999989,-0.15259250
17.75999989,-4.63881300
17.79999989,-4.63881300
17.83999989,-0.15259250
17.87999989,-4.63881300
17.91999989,-0.15259250
17.95999989,-0.15259250
17.99999989,-0.15259250
18.03999989,-0.15259250
18.07999989,-4.63881300
18.11999989,-0.15259250
18.15999989,-0.15259250
18.19999989,-0.15259250
18.23999989,-0.15259250
18.27999989,-0.15259250
18.31999989,-0.15259250
18.35999989,-0.15259250
18.39999989,-0.15259250
18.43999989,-0.15259250
18.47999989,-0.15259250
18.51999989,-0.15259250
18.55999989,-0.15259250
18.59999989,-0.15259250
18.63999989,-0.15259250
18.67999989,-0.15259250
18.71999989,-0.15259250
18.75999989,-0.15259250
18.79999989,-0.15259250
18.83999989,-0.15259250
18.87999989,-0.15259250
18.91999989,-0.15259250
18.95999988,-0.15259250
18.99999988,-0.15259250
19.03999988,-0.15259250
19.07999988,-0.15259250
19.11999988,-0.15259250
19.15999988,-0.15259250
19.19999988,-0.15259250
19.23999988,-0.15259250
19.27999988,-0.15259250
19.31999988,-4.63881300
19.35999988,-4.63881300
19.39999988,-0.15259250
19.43999988,-0.15259250
19.47999988,-0.15259250
19.51999988,-0.15259250
19.55999988,-0.15259250
19.59999988,-0.15259250
19.63999988,-0.15259250
19.67999988,-0.15259250
19.71999988,-0.15259250
19.75999988,-0.15259250
19.79999988,-4.63881300
19.83999988,-4.63881300
19.87999988,-0.15259250
19.91999988,-4.63881300
19.95999988,-0.15259250
19.99999988,-4.63881300
20.03999988,-0.15259250
20.07999988,-0.15259250
20.11999988,-0.15259250
20.15999988,-4.63881300
20.19999988,-0.15259250
20.23999988,-4.63881300
20.27999988,-0.15259250
20.31999988,-0.15259250
20.35999988,-4.63881300
20.39999988,-9.12503300
20.43999988,-18.11273000
20.47999988,-22.59896000
20.51999988,-22.59896000
20.55999988,-22.59896000
20.59999987,-18.11273000
20.63999987,-0.15259250
20.67999987,13.32133000
20.71999987,26.79525000
20.75999987,35.78295000
20.79999987,40.26917000
20.83999987,35.78295000
20.87999987,26.79525000
20.91999987,8.81984900
20.95999987,-0.15259250
20.99999987,-9.12503300
21.03999987,-18.11273000
21.07999987,-18.11273000
21.11999987,-18.11273000
21.15999987,-18.11273000
21.19999987,-13.62651000
21.23999987,-9.12503300
21.27999987,-13.62651000
21.31999987,-13.62651000
21.35999987,-9.12503300
21.39999987,-9.12503300
21.43999987,-4.63881300
21.47999987,-9.12503300
21.51999987,-4.63881300
21.55999987,-4.63881300
21.59999987,-0.15259250
21.63999987,-0.15259250
21.67999987,4.33362800
21.71999987,8.81984900
21.75999987,8.81984900
21.79999987,13.32133000
21.83999987,13.32133000
21.87999987,8.81984900
21.91999987,-0.15259250
21.95999987,-0.15259250
21.99999987,-4.63881300
22.03999987,-9.12503300
22.07999987,-13.62651000
22.11999987,-13.62651000
22.15999987,-9.12503300
22.19999987,-4.63881300
22.23999986,-4.63881300
22.27999986,-0.15259250
22.31999986,-0.15259250
22.35999986,-0.15259250
22.39999986,-0.15259250
22.43999986,-0.15259250
22.47999986,-0.15259250
22.51999986,-0.15259250
22.55999986,-0.15259250
22.59999986,-0.15259250
22.63999986,4.33362800
22.67999986,4.33362800
22.71999986,8.81984900
22.75999986,8.81984900
22.79999986,4.33362800
22.83999986,-0.15259250
22.87999986,-0.15259250
22.91999986,-4.63881300
22.95999986,-4.63881300
22.99999986,-9.12503300
23.03999986,-9.12503300
23.07999986,-4.63881300
23.11999986,-9.12503300
23.15999986,-4.63881300
23.19999986,-4.63881300
23.23999986,-4.63881300
23.27999986,-0.15259250
23.31999986,-4.63881300
23.35999986,-0.15259250
23.39999986,-0.15259250
23.43999986,-0.15259250
23.47999986,-0.15259250
23.51999986,-0.15259250
23.55999986,-0.15259250
23.59999986,-0.15259250
23.63999986,-0.15259250
23.67999986,-0.15259250
23.71999986,-0.15259250
23.75999986,-0.15259250
23.79999986,-0.15259250
23.83999986,-0.15259250
23.87999985,-0.15259250
23.91999985,-4.63881300
23.95999985,-4.63881300
23.99999985,-4.63881300
24.03999985,-4.63881300
24.07999985,-4.63881300
24.11999985,-4.63881300
24.15999985,-4.63881300
24.19999985,-0.15259250
24.23999985,-0.15259250
24.27999985,-9.12503300
24.31999985,-0.15259250
24.35999985,8.81984900
24.39999985,4.33362800
24.43999985,-0.15259250
24.47999985,-0.15259250
24.51999985,-0.15259250
24.55999985,4.33362800
24.59999985,-0.15259250
24.63999985,-0.15259250
24.67999985,-0.15259250
24.71999985,-0.15259250
24.75999985,-0.15259250
24.79999985,-0.15259250
24.83999985,-0.15259250
24.87999985,-4.63881300
24.91999985,-0.15259250
24.95999985,-4.63881300
24.99999985,-0.15259250
25.03999985,-4.63881300
25.07999985,-0.15259250
25.11999985,-4.63881300
25.15999985,-4.63881300
25.19999985,-0.15259250
25.23999985,-0.15259250
25.27999985,-0.15259250
25.31999985,-0.15259250
25.35999985,-0.15259250
25.39999985,-0.15259250
25.43999985,-0.15259250
25.47999985,-0.15259250
25.51999984,-0.15259250
25.55999984,-0.15259250
25.59999984,-0.15259250
25.63999984,-0.15259250
25.67999984,-0.15259250
25.71999984,-0.15259250
25.75999984,-0.15259250
25.79999984,-0.15259250
25.83999984,-4.63881300
25.87999984,-4.63881300
25.91999984,-0.15259250
25.95999984,-4.63881300
25.99999984,-4.63881300
26.03999984,-0.15259250
26.07999984,-4.63881300
26.11999984,-0.15259250
26.15999984,-0.15259250
26.19999984,-0.15259250
26.23999984,-0.15259250
26.27999984,-0.15259250
26.31999984,-0.15259250
26.35999984,-0.15259250
26.39999984,-0.15259250
26.43999984,-0.15259250
26.47999984,-0.15259250
26.51999984,-0.15259250
26.55999984,-0.15259250
26.59999984,-0.15259250
26.63999984,-0.15259250
26.67999984,-0.15259250
26.71999984,-0.15259250
26.75999984,-0.15259250
26.79999984,-0.15259250
26.83999984,-0.15259250
26.87999984,-4.63881300
26.91999984,-0.15259250
26.95999984,-4.63881300
26.99999984,-0.15259250
27.03999984,-0.15259250
27.07999984,-0.15259250
27.11999984,-0.15259250
27.15999983,-4.63881300
27.19999983,-0.15259250
27.23999983,-0.15259250
27.27999983,-0.15259250
27.31999983,-0.15259250
27.35999983,-0.15259250
27.39999983,-0.15259250
27.43999983,-0.15259250
27.47999983,-0.15259250
27.51999983,-0.15259250
27.55999983,-0.15259250
27.59999983,-0.15259250
27.63999983,-0.15259250
27.67999983,-0.15259250
27.71999983,-0.15259250
27.75999983,-0.15259250
27.79999983,-0.15259250
27.83999983,-0.15259250
27.87999983,-0.15259250
27.91999983,-0.15259250
27.95999983,-0.15259250
27.99999983,-0.15259250
28.03999983,-0.15259250
28.07999983,-0.15259250
28.11999983,-0.15259250
28.15999983,-0.15259250
28.19999983,-0.15259250
28.23999983,-0.15259250
28.27999983,-0.15259250
28.31999983,-0.15259250
28.35999983,-0.15259250
28.39999983,-0.15259250
28.43999983,-0.15259250
28.47999983,-0.15259250
28.51999983,-0.15259250
28.55999983,-0.15259250
28.59999983,-0.15259250
28.63999983,-0.15259250
28.67999983,-0.15259250
28.71999983,-0.15259250
28.75999983,-0.15259250
28.79999982,-0.15259250
28.83999982,-0.15259250
28.87999982,-0.15259250
28.91999982,-0.15259250
28.95999982,-0.15259250
28.99999982,-0.15259250
29.03999982,-0.15259250
29.07999982,-0.15259250
29.11999982,-0.15259250
29.15999982,-4.63881300
29.19999982,-4.63881300
29.23999982,-0.15259250
29.27999982,-0.15259250
29.31999982,-0.15259250
29.35999982,-0.15259250
29.39999982,-0.15259250
29.43999982,-0.15259250
29.47999982,-0.15259250
29.51999982,-0.15259250
29.55999982,-0.15259250
29.59999982,-0.15259250
29.63999982,-0.15259250
29.67999982,-4.63881300
29.71999982,-0.15259250
29.75999982,-0.15259250
29.79999982,-0.15259250
29.83999982,-0.15259250
29.87999982,-0.15259250
29.91999982,-0.15259250
29.95999982,-0.15259250
29.99999982,-0.15259250
30.03999982,-0.15259250
30.07999982,-0.15259250
30.11999982,-0.15259250
30.15999982,-0.15259250
30.19999982,-0.15259250
30.23999982,-0.15259250
30.27999982,-0.15259250
30.31999982,-0.15259250
30.35999982,-0.15259250
30.39999982,-0.15259250
30.43999982,-0.15259250
30.47999981,-0.15259250
30.51999981,-0.15259250
30.55999981,-0.15259250
30.59999981,-0.15259250
30.63999981,-0.15259250
30.67999981,-4.63881300
30.71999981,-0.15259250
30.75999981,-0.15259250
30.79999981,-0.15259250
30.83999981,-0.15259250
30.87999981,-0.15259250
30.91999981,-0.15259250
30.95999981,-0.15259250
30.99999981,-0.15259250
31.03999981,-0.15259250
31.07999981,-0.15259250
31.11999981,-0.15259250
31.15999981,-0.15259250
31.19999981,-0.15259250
31.23999981,-0.15259250
31.27999981,-0.15259250
31.31999981,-0.15259250
31.35999981,-0.15259250
31.39999981,-0.15259250
31.43999981,-0.15259250
31.47999981,-0.15259250
31.51999981,-0.15259250
31.55999981,-0.15259250
31.59999981,-0.15259250
31.63999981,-0.15259250
31.67999981,-0.15259250
31.71999981,-0.15259250
31.75999981,-0.15259250
31.79999981,-0.15259250
31.83999981,-0.15259250
31.87999981,-0.15259250
31.91999981,-0.15259250
31.95999981,-0.15259250
31.99999981,-0.15259250
32.03999981,-0.15259250
32.07999981,-4.63881300
32.11999980,-0.15259250
32.15999980,-0.15259250
32.19999980,-0.15259250
32.23999980,-0.15259250
32.27999980,-0.15259250
