Time	Channel A
(us)	(mV)

0.00000000	184.02660000
0.04000000	179.52510000
0.08000000	175.03890000
0.12000000	166.05120000
0.16000000	157.06350000
0.20000000	148.07580000
0.24000000	134.60190000
0.28000000	121.12800000
0.32000000	107.65400000
0.36000000	89.67863000
0.40000000	76.20471000
0.44000000	58.24457000
0.48000000	40.26917000
0.52000000	22.29377000
0.56000000	-0.15259250
0.60000000	-9.12503300
0.64000000	-22.59896000
0.68000000	-40.57436000
0.72000000	-58.54976000
0.76000000	-76.50990000
0.80000000	-89.98383000
0.83999999	-103.45770000
0.87999999	-116.94690000
0.91999999	-125.91940000
0.95999999	-139.40860000
0.99999999	-148.38100000
1.03999999	-157.36870000
1.07999999	-161.87020000
1.11999999	-166.35640000
1.15999999	-170.84260000
1.19999999	-175.34410000
1.23999999	-175.34410000
1.27999999	-179.83030000
1.31999999	-175.34410000
1.35999999	-170.84260000
1.39999999	-166.35640000
1.43999999	-161.87020000
1.47999999	-148.38100000
1.51999999	-143.89480000
1.55999999	-130.42080000
1.59999999	-116.94690000
1.63999999	-107.95920000
1.67999999	-89.98383000
1.71999999	-76.50990000
1.75999999	-58.54976000
1.79999999	-40.57436000
1.83999999	-27.10044000
1.87999999	-9.12503300
1.91999999	8.81984900
1.95999999	22.29377000
1.99999999	40.26917000
2.03999999	53.74309000
2.07999999	71.71850000
2.11999999	85.19241000
2.15999999	103.15250000
2.19999999	112.14030000
2.23999999	125.61420000
2.27999999	139.10340000
2.31999999	143.58960000
2.35999999	152.57730000
2.39999999	161.56500000
2.43999999	166.05120000
2.47999998	175.03890000
2.51999998	175.03890000
2.55999998	179.52510000
2.59999998	179.52510000
2.63999998	179.52510000
2.67999998	175.03890000
2.71999998	170.53740000
2.75999998	161.56500000
2.79999998	157.06350000
2.83999998	143.58960000
2.87999998	139.10340000
2.91999998	125.61420000
2.95999998	116.64170000
2.99999998	103.15250000
3.03999998	85.19241000
3.07999998	71.71850000
3.11999998	53.74309000
3.15999998	35.78295000
3.19999998	22.29377000
3.23999998	4.33362800
3.27999998	-9.12503300
3.31999998	-27.10044000
3.35999998	-40.57436000
3.39999998	-58.54976000
3.43999998	-72.02368000
3.47999998	-85.49760000
3.51999998	-98.97152000
3.55999998	-112.44540000
3.59999998	-125.91940000
3.63999998	-134.90710000
3.67999998	-143.89480000
3.71999998	-148.38100000
3.75999998	-161.87020000
3.79999998	-161.87020000
3.83999998	-166.35640000
3.87999998	-166.35640000
3.91999998	-166.35640000
3.95999998	-166.35640000
3.99999998	-161.87020000
4.03999998	-161.87020000
4.07999998	-157.36870000
4.11999997	-148.38100000
4.15999997	-143.89480000
4.19999997	-130.42080000
4.23999997	-121.43310000
4.27999997	-107.95920000
4.31999997	-94.48530000
4.35999997	-85.49760000
4.39999997	-72.02368000
4.43999997	-54.04828000
4.47999997	-40.57436000
4.51999997	-22.59896000
4.55999997	-4.63881300
4.59999997	8.81984900
4.63999997	22.29377000
4.67999997	40.26917000
4.71999997	53.74309000
4.75999997	71.71850000
4.79999997	85.19241000
4.83999997	98.66634000
4.87999997	112.14030000
4.91999997	121.12800000
4.95999997	134.60190000
4.99999997	143.58960000
5.03999997	152.57730000
5.07999997	157.06350000
5.11999997	161.56500000
5.15999997	166.05120000
5.19999997	166.05120000
5.23999997	170.53740000
5.27999997	170.53740000
5.31999997	170.53740000
5.35999997	161.56500000
5.39999997	161.56500000
5.43999997	148.07580000
5.47999997	143.58960000
5.51999997	139.10340000
5.55999997	130.11560000
5.59999997	116.64170000
5.63999997	103.15250000
5.67999997	89.67863000
5.71999997	80.70620000
5.75999996	67.21701000
5.79999996	53.74309000
5.83999996	35.78295000
5.87999996	17.80755000
5.91999996	-0.15259250
5.95999996	-9.12503300
5.99999996	-27.10044000
6.03999996	-40.57436000
6.07999996	-54.04828000
6.11999996	-72.02368000
6.15999996	-85.49760000
6.19999996	-94.48530000
6.23999996	-107.95920000
6.27999996	-116.94690000
6.31999996	-130.42080000
6.35999996	-139.40860000
6.39999996	-143.89480000
6.43999996	-152.88250000
6.47999996	-152.88250000
6.51999996	-161.87020000
6.55999996	-161.87020000
6.59999996	-161.87020000
6.63999996	-157.36870000
6.67999996	-157.36870000
6.71999996	-152.88250000
6.75999996	-143.89480000
6.79999996	-139.40860000
6.83999996	-130.42080000
6.87999996	-125.91940000
6.91999996	-112.44540000
6.95999996	-103.45770000
6.99999996	-89.98383000
7.03999996	-76.50990000
7.07999996	-63.03598000
7.11999996	-49.56206000
7.15999996	-36.08813000
7.19999996	-22.59896000
7.23999996	-4.63881300
7.27999996	8.81984900
7.31999996	22.29377000
7.35999996	40.26917000
7.39999996	53.74309000
7.43999995	67.21701000
7.47999995	80.70620000
7.51999995	94.18011000
7.55999995	107.65400000
7.59999995	116.64170000
7.63999995	125.61420000
7.67999995	134.60190000
7.71999995	143.58960000
7.75999995	152.57730000
7.79999995	157.06350000
7.83999995	157.06350000
7.87999995	161.56500000
7.91999995	161.56500000
7.95999995	161.56500000
7.99999995	161.56500000
8.03999995	157.06350000
8.07999995	148.07580000
8.11999995	143.58960000
8.15999995	139.10340000
8.19999995	130.11560000
8.23999995	121.12800000
8.27999995	112.14030000
8.31999995	98.66634000
8.35999995	85.19241000
8.39999995	71.71850000
8.43999995	58.24457000
8.47999995	44.75539000
8.51999995	31.28147000
8.55999995	17.80755000
8.59999995	-0.15259250
8.63999995	-13.62651000
8.67999995	-27.10044000
8.71999995	-40.57436000
8.75999995	-58.54976000
8.79999995	-72.02368000
8.83999995	-81.01138000
8.87999995	-94.48530000
8.91999995	-103.45770000
8.95999995	-112.44540000
8.99999995	-125.91940000
9.03999995	-130.42080000
9.07999994	-139.40860000
9.11999994	-143.89480000
9.15999994	-148.38100000
9.19999994	-148.38100000
9.23999994	-152.88250000
9.27999994	-152.88250000
9.31999994	-152.88250000
9.35999994	-148.38100000
9.39999994	-143.89480000
9.43999994	-139.40860000
9.47999994	-130.42080000
9.51999994	-125.91940000
9.55999994	-116.94690000
9.59999994	-107.95920000
9.63999994	-94.48530000
9.67999994	-85.49760000
9.71999994	-72.02368000
9.75999994	-58.54976000
9.79999994	-45.06058000
9.83999994	-31.58666000
9.87999994	-18.11273000
9.91999994	-4.63881300
9.95999994	13.32133000
9.99999994	26.79525000
10.03999994	40.26917000
10.07999994	53.74309000
10.11999994	71.71850000
10.15999994	80.70620000
10.19999994	89.67863000
10.23999994	103.15250000
10.27999994	112.14030000
10.31999994	125.61420000
10.35999994	130.11560000
10.39999994	130.11560000
10.43999994	143.58960000
10.47999994	152.57730000
10.51999994	157.06350000
10.55999994	152.57730000
10.59999994	152.57730000
10.63999994	157.06350000
10.67999994	152.57730000
10.71999993	148.07580000
10.75999993	143.58960000
10.79999993	139.10340000
10.83999993	130.11560000
10.87999993	121.12800000
10.91999993	116.64170000
10.95999993	103.15250000
10.99999993	89.67863000
11.03999993	80.70620000
11.07999993	67.21701000
11.11999993	53.74309000
11.15999993	40.26917000
11.19999993	26.79525000
11.23999993	13.32133000
11.27999993	-0.15259250
11.31999993	-13.62651000
11.35999993	-27.10044000
11.39999993	-40.57436000
11.43999993	-54.04828000
11.47999993	-67.52220000
11.51999993	-81.01138000
11.55999993	-89.98383000
11.59999993	-98.97152000
11.63999993	-107.95920000
11.67999993	-116.94690000
11.71999993	-125.91940000
11.75999993	-130.42080000
11.79999993	-134.90710000
11.83999993	-143.89480000
11.87999993	-143.89480000
11.91999993	-143.89480000
11.95999993	-143.89480000
11.99999993	-143.89480000
12.03999993	-143.89480000
12.07999993	-139.40860000
12.11999993	-130.42080000
12.15999993	-125.91940000
12.19999993	-116.94690000
12.23999993	-107.95920000
12.27999993	-98.97152000
12.31999993	-89.98383000
12.35999992	-76.50990000
12.39999992	-67.52220000
12.43999992	-54.04828000
12.47999992	-40.57436000
12.51999992	-27.10044000
12.55999992	-13.62651000
12.59999992	-0.15259250
12.63999992	13.32133000
12.67999992	26.79525000
12.71999992	40.26917000
12.75999992	53.74309000
12.79999992	67.21701000
12.83999992	76.20471000
12.87999992	89.67863000
12.91999992	98.66634000
12.95999992	112.14030000
12.99999992	116.64170000
13.03999992	125.61420000
13.07999992	130.11560000
13.11999992	139.10340000
13.15999992	139.10340000
13.19999992	143.58960000
13.23999992	148.07580000
13.27999992	148.07580000
13.31999992	143.58960000
13.35999992	143.58960000
13.39999992	139.10340000
13.43999992	139.10340000
13.47999992	130.11560000
13.51999992	121.12800000
13.55999992	116.64170000
13.59999992	103.15250000
13.63999992	94.18011000
13.67999992	85.19241000
13.71999992	76.20471000
13.75999992	62.73079000
13.79999992	49.25687000
13.83999992	35.78295000
13.87999992	22.29377000
13.91999992	13.32133000
13.95999992	-0.15259250
13.99999991	-18.11273000
14.03999991	-27.10044000
14.07999991	-40.57436000
14.11999991	-54.04828000
14.15999991	-67.52220000
14.19999991	-76.50990000
14.23999991	-89.98383000
14.27999991	-94.48530000
14.31999991	-107.95920000
14.35999991	-112.44540000
14.39999991	-121.43310000
14.43999991	-125.91940000
14.47999991	-130.42080000
14.51999991	-134.90710000
14.55999991	-134.90710000
14.59999991	-139.40860000
14.63999991	-139.40860000
14.67999991	-134.90710000
14.71999991	-134.90710000
14.75999991	-130.42080000
14.79999991	-125.91940000
14.83999991	-116.94690000
14.87999991	-107.95920000
14.91999991	-103.45770000
14.95999991	-94.48530000
14.99999991	-81.01138000
15.03999991	-72.02368000
15.07999991	-58.54976000
15.11999991	-49.56206000
15.15999991	-36.08813000
15.19999991	-22.59896000
15.23999991	-13.62651000
15.27999991	-4.63881300
15.31999991	13.32133000
15.35999991	31.28147000
15.39999991	40.26917000
15.43999991	53.74309000
15.47999991	62.73079000
15.51999991	76.20471000
15.55999991	85.19241000
15.59999991	94.18011000
15.63999990	107.65400000
15.67999990	112.14030000
15.71999990	121.12800000
15.75999990	125.61420000
15.79999990	130.11560000
15.83999990	139.10340000
15.87999990	139.10340000
15.91999990	139.10340000
15.95999990	143.58960000
15.99999990	139.10340000
16.03999990	139.10340000
16.07999990	134.60190000
16.11999990	130.11560000
16.15999990	125.61420000
16.19999990	116.64170000
16.23999990	107.65400000
16.27999990	98.66634000
16.31999990	89.67863000
16.35999990	80.70620000
16.39999990	67.21701000
16.43999990	58.24457000
16.47999990	44.75539000
16.51999990	35.78295000
16.55999990	17.80755000
16.59999990	8.81984900
16.63999990	-4.63881300
16.67999990	-18.11273000
16.71999990	-27.10044000
16.75999990	-40.57436000
16.79999990	-54.04828000
16.83999990	-81.01138000
16.87999990	-107.95920000
16.91999990	-116.94690000
16.95999990	-107.95920000
16.99999990	-107.95920000
17.03999990	-107.95920000
17.07999990	-103.45770000
17.11999990	-85.49760000
17.15999990	-72.02368000
17.19999990	-76.50990000
17.23999990	-103.45770000
17.27999989	-121.43310000
17.31999989	-125.91940000
17.35999989	-125.91940000
17.39999989	-134.90710000
17.43999989	-143.89480000
17.47999989	-139.40860000
17.51999989	-125.91940000
17.55999989	-107.95920000
17.59999989	-103.45770000
17.63999989	-103.45770000
17.67999989	-89.98383000
17.71999989	-76.50990000
17.75999989	-58.54976000
17.79999989	-49.56206000
17.83999989	-36.08813000
17.87999989	-27.10044000
17.91999989	-9.12503300
17.95999989	4.33362800
17.99999989	13.32133000
18.03999989	31.28147000
18.07999989	44.75539000
18.11999989	62.73079000
18.15999989	80.70620000
18.19999989	89.67863000
18.23999989	103.15250000
18.27999989	107.65400000
18.31999989	107.65400000
18.35999989	112.14030000
18.39999989	112.14030000
18.43999989	112.14030000
18.47999989	112.14030000
18.51999989	116.64170000
18.55999989	125.61420000
18.59999989	130.11560000
18.63999989	130.11560000
18.67999989	134.60190000
18.71999989	130.11560000
18.75999989	125.61420000
18.79999989	121.12800000
18.83999989	112.14030000
18.87999989	107.65400000
18.91999989	98.66634000
18.95999988	94.18011000
18.99999988	85.19241000
19.03999988	80.70620000
19.07999988	71.71850000
19.11999988	62.73079000
19.15999988	53.74309000
19.19999988	35.78295000
19.23999988	22.29377000
19.27999988	8.81984900
19.31999988	-4.63881300
19.35999988	-18.11273000
19.39999988	-36.08813000
19.43999988	-45.06058000
19.47999988	-54.04828000
19.51999988	-67.52220000
19.55999988	-76.50990000
19.59999988	-85.49760000
19.63999988	-94.48530000
19.67999988	-103.45770000
19.71999988	-107.95920000
19.75999988	-112.44540000
19.79999988	-116.94690000
19.83999988	-121.43310000
19.87999988	-121.43310000
19.91999988	-125.91940000
19.95999988	-125.91940000
19.99999988	-125.91940000
20.03999988	-121.43310000
20.07999988	-116.94690000
20.11999988	-107.95920000
20.15999988	-103.45770000
20.19999988	-98.97152000
20.23999988	-103.45770000
20.27999988	-89.98383000
20.31999988	-81.01138000
20.35999988	-81.01138000
20.39999988	-72.02368000
20.43999988	-72.02368000
20.47999988	-63.03598000
20.51999988	-54.04828000
20.55999988	-36.08813000
20.59999987	-0.15259250
20.63999987	17.80755000
20.67999987	35.78295000
20.71999987	53.74309000
20.75999987	76.20471000
20.79999987	89.67863000
20.83999987	85.19241000
20.87999987	80.70620000
20.91999987	85.19241000
20.95999987	89.67863000
20.99999987	98.66634000
21.03999987	94.18011000
21.07999987	98.66634000
21.11999987	107.65400000
21.15999987	116.64170000
21.19999987	121.12800000
21.23999987	116.64170000
21.27999987	116.64170000
21.31999987	116.64170000
21.35999987	121.12800000
21.39999987	121.12800000
21.43999987	112.14030000
21.47999987	107.65400000
21.51999987	103.15250000
21.55999987	103.15250000
21.59999987	98.66634000
21.63999987	89.67863000
21.67999987	89.67863000
21.71999987	89.67863000
21.75999987	103.15250000
21.79999987	112.14030000
21.83999987	125.61420000
21.87999987	143.58960000
21.91999987	152.57730000
21.95999987	170.53740000
21.99999987	175.03890000
22.03999987	175.03890000
22.07999987	166.05120000
22.11999987	152.57730000
22.15999987	134.60190000
22.19999987	103.15250000
22.23999986	62.73079000
22.27999986	13.32133000
22.31999986	-40.57436000
22.35999986	-103.45770000
22.39999986	-157.36870000
22.43999986	-215.76590000
22.47999986	-260.68910000
22.51999986	-292.13840000
22.55999986	-314.60000000
22.59999986	-328.07390000
22.63999986	-328.07390000
22.67999986	-323.58770000
22.71999986	-305.61230000
22.75999986	-287.65220000
22.79999986	-256.20290000
22.83999986	-229.23980000
22.87999986	-202.29190000
22.91999986	-175.34410000
22.95999986	-148.38100000
22.99999986	-125.91940000
23.03999986	-107.95920000
23.07999986	-94.48530000
23.11999986	-89.98383000
23.15999986	-85.49760000
23.19999986	-89.98383000
23.23999986	-94.48530000
23.27999986	-103.45770000
23.31999986	-112.44540000
23.35999986	-116.94690000
23.39999986	-116.94690000
23.43999986	-112.44540000
23.47999986	-103.45770000
23.51999986	-89.98383000
23.55999986	-63.03598000
23.59999986	-31.58666000
23.63999986	4.33362800
23.67999986	49.25687000
23.71999986	98.66634000
23.75999986	143.58960000
23.79999986	197.50050000
23.83999986	246.91000000
23.87999985	300.82090000
23.91999985	345.74420000
23.95999985	377.17820000
23.99999985	413.11380000
24.03999985	435.57540000
24.07999985	431.08920000
24.11999985	440.07690000
24.15999985	422.10150000
24.19999985	390.65220000
24.23999985	350.23040000
24.27999985	305.30720000
24.31999985	251.39620000
24.35999985	192.99900000
24.39999985	139.10340000
24.43999985	80.70620000
24.47999985	35.78295000
24.51999985	-4.63881300
24.55999985	-36.08813000
24.59999985	-54.04828000
24.63999985	-63.03598000
24.67999985	-63.03598000
24.71999985	-58.54976000
24.75999985	-54.04828000
24.79999985	-40.57436000
24.83999985	-36.08813000
24.87999985	-27.10044000
24.91999985	-27.10044000
24.95999985	-31.58666000
24.99999985	-45.06058000
25.03999985	-67.52220000
25.07999985	-94.48530000
25.11999985	-130.42080000
25.15999985	-166.35640000
25.19999985	-202.29190000
25.23999985	-247.21520000
25.27999985	-287.65220000
25.31999985	-323.58770000
25.35999985	-350.53560000
25.39999985	-372.99720000
25.43999985	-386.47110000
25.47999985	-390.95730000
25.51999984	-377.48340000
25.55999984	-364.00950000
25.59999984	-332.56020000
25.63999984	-292.13840000
25.67999984	-251.70140000
25.71999984	-206.77810000
25.75999984	-157.36870000
25.79999984	-107.95920000
25.83999984	-63.03598000
25.87999984	-22.59896000
25.91999984	13.32133000
25.95999984	40.26917000
25.99999984	62.73079000
26.03999984	76.20471000
26.07999984	85.19241000
26.11999984	89.67863000
26.15999984	89.67863000
26.19999984	85.19241000
26.23999984	85.19241000
26.27999984	85.19241000
26.31999984	89.67863000
26.35999984	94.18011000
26.39999984	112.14030000
26.43999984	143.58960000
26.47999984	170.53740000
26.51999984	197.50050000
26.55999984	246.91000000
26.59999984	282.84560000
26.63999984	323.28260000
26.67999984	359.21810000
26.71999984	386.16590000
26.75999984	399.63990000
26.79999984	408.62750000
26.83999984	404.14130000
26.87999984	386.16590000
26.91999984	359.21810000
26.95999984	323.28260000
26.99999984	278.35930000
27.03999984	228.93460000
27.07999984	175.03890000
27.11999984	121.12800000
27.15999983	67.21701000
27.19999983	17.80755000
27.23999983	-27.10044000
27.27999983	-58.54976000
27.31999983	-89.98383000
27.35999983	-107.95920000
27.39999983	-121.43310000
27.43999983	-130.42080000
27.47999983	-130.42080000
27.51999983	-130.42080000
27.55999983	-125.91940000
27.59999983	-121.43310000
27.63999983	-116.94690000
27.67999983	-116.94690000
27.71999983	-121.43310000
27.75999983	-134.90710000
27.79999983	-148.38100000
27.83999983	-166.35640000
27.87999983	-193.30420000
27.91999983	-220.26730000
27.95999983	-251.70140000
27.99999983	-283.15070000
28.03999983	-305.61230000
28.07999983	-328.07390000
28.11999983	-346.04930000
28.15999983	-355.02180000
28.19999983	-359.52330000
28.23999983	-346.04930000
28.27999983	-323.58770000
28.31999983	-301.12610000
28.35999983	-269.67680000
28.39999983	-224.75350000
28.43999983	-179.83030000
28.47999983	-130.42080000
28.51999983	-81.01138000
28.55999983	-36.08813000
28.59999983	13.32133000
28.63999983	53.74309000
28.67999983	85.19241000
28.71999983	112.14030000
28.75999983	134.60190000
28.79999982	148.07580000
28.83999982	157.06350000
28.87999982	161.56500000
28.91999982	161.56500000
28.95999982	161.56500000
28.99999982	161.56500000
29.03999982	161.56500000
29.07999982	161.56500000
29.11999982	170.53740000
29.15999982	179.52510000
29.19999982	188.51280000
29.23999982	206.47300000
29.27999982	224.44840000
29.31999982	242.42380000
29.35999982	264.88540000
29.39999982	282.84560000
29.43999982	300.82090000
29.47999982	309.79340000
29.51999982	323.28260000
29.55999982	318.78110000
29.59999982	314.29490000
29.63999982	300.82090000
29.67999982	278.35930000
29.71999982	251.39620000
29.75999982	215.46070000
29.79999982	179.52510000
29.83999982	139.10340000
29.87999982	94.18011000
29.91999982	49.25687000
29.95999982	8.81984900
29.99999982	-31.58666000
30.03999982	-63.03598000
30.07999982	-107.95920000
30.11999982	-130.42080000
30.15999982	-139.40860000
30.19999982	-152.88250000
30.23999982	-170.84260000
30.27999982	-179.83030000
30.31999982	-179.83030000
30.35999982	-179.83030000
30.39999982	-179.83030000
30.43999982	-184.33180000
30.47999981	-184.33180000
30.51999981	-193.30420000
30.55999981	-197.80570000
30.59999981	-206.77810000
30.63999981	-215.76590000
30.67999981	-233.74130000
30.71999981	-242.72890000
30.75999981	-256.20290000
30.79999981	-265.19060000
30.83999981	-274.16300000
30.87999981	-278.66450000
30.91999981	-278.66450000
30.95999981	-274.16300000
