Time,Channel A
(us),(V)

0.00000000,-0.97549360
0.04000000,-0.86709190
0.08000000,-0.75869010
0.12000000,-0.65028840
0.16000000,-0.52388070
0.20000000,-0.39741200
0.24000000,-0.27094330
0.28000000,-0.14447460
0.32000000,-0.01800592
0.36000000,0.10834070
0.40000000,0.21674250
0.44000000,0.28901030
0.48000000,0.39741200
0.52000000,0.48774680
0.56000000,0.57808160
0.60000000,0.65028840
0.64000000,0.72255620
0.68000000,0.79482410
0.72000000,0.88515880
0.76000000,0.97549360
0.80000000,1.04776100
0.83999999,1.13809600
0.87999999,1.19223600
0.91999999,1.26450400
0.95999999,1.30063800
0.99999999,1.33677200
1.03999999,1.35483900
1.07999999,1.33677200
1.11999999,1.31870500
1.15999999,1.28257100
1.19999999,1.21030300
1.23999999,1.12002900
1.27999999,1.02969500
1.31999999,0.92129280
1.35999999,0.79482410
1.39999999,0.68642230
1.43999999,0.56001470
1.47999999,0.43354590
1.51999999,0.30707720
1.55999999,0.18060850
1.59999999,0.07220680
1.63999999,-0.05413984
1.67999999,-0.14447460
1.71999999,-0.23480940
1.75999999,-0.32514420
1.79999999,-0.39741200
1.83999999,-0.48774680
1.87999999,-0.56001470
1.91999999,-0.61415450
1.95999999,-0.68642230
1.99999999,-0.75869010
2.03999999,-0.83095790
2.07999999,-0.88515880
2.11999999,-0.95742670
2.15999999,-1.02969500
2.19999999,-1.08389500
2.23999999,-1.15616300
2.27999999,-1.19223600
2.31999999,-1.22837000
2.35999999,-1.26450400
2.39999999,-1.28257100
2.43999999,-1.28257100
2.47999998,-1.24643700
2.51999998,-1.22837000
2.55999998,-1.15616300
2.59999998,-1.10196200
2.63999998,-1.01162800
2.67999998,-0.90322580
2.71999998,-0.79482410
2.75999998,-0.66835530
2.79999998,-0.54194770
2.83999998,-0.41547900
2.87999998,-0.28901030
2.91999998,-0.16254160
2.95999998,-0.03607288
2.99999998,0.07220680
3.03999998,0.19867550
3.07999998,0.28901030
3.11999998,0.37934510
3.15999998,0.46967990
3.19999998,0.56001470
3.23999998,0.63222150
3.27999998,0.72255620
3.31999998,0.79482410
3.35999998,0.86709190
3.39999998,0.95742670
3.43999998,1.02969500
3.47999998,1.10196200
3.51999998,1.17416900
3.55999998,1.24643700
3.59999998,1.30063800
3.63999998,1.33677200
3.67999998,1.33677200
3.71999998,1.33677200
3.75999998,1.31870500
3.79999998,1.30063800
3.83999998,1.22837000
3.87999998,1.15616300
3.91999998,1.06582800
3.95999998,0.95742670
3.99999998,0.83095790
4.03999998,0.72255620
4.07999998,0.57808160
4.11999997,0.46967990
4.15999997,0.32514420
4.19999997,0.19867550
4.23999997,0.07220680
4.27999997,-0.01800592
4.31999997,-0.12640770
4.35999997,-0.21674250
4.39999997,-0.30707720
4.43999997,-0.39741200
4.47999997,-0.46967990
4.51999997,-0.54194770
4.55999997,-0.61415450
4.59999997,-0.66835530
4.63999997,-0.74062320
4.67999997,-0.81289100
4.71999997,-0.88515880
4.75999997,-0.93935970
4.79999997,-1.01162800
4.83999997,-1.08389500
4.87999997,-1.13809600
4.91999997,-1.17416900
4.95999997,-1.22837000
4.99999997,-1.24643700
5.03999997,-1.28257100
5.07999997,-1.26450400
5.11999997,-1.26450400
5.15999997,-1.22837000
5.19999997,-1.17416900
5.23999997,-1.10196200
5.27999997,-1.01162800
5.31999997,-0.93935970
5.35999997,-0.81289100
5.39999997,-0.70448930
5.43999997,-0.57808160
5.47999997,-0.45161290
5.51999997,-0.32514420
5.55999997,-0.18060850
5.59999997,-0.07220680
5.63999997,0.05413984
5.67999997,0.16254160
5.71999997,0.27094330
5.75999996,0.36127810
5.79999996,0.45161290
5.83999996,0.54194770
5.87999996,0.61415450
5.91999996,0.70448930
5.95999996,0.77675710
5.99999996,0.86709190
6.03999996,0.93935970
6.07999996,1.01162800
6.11999996,1.10196200
6.15999996,1.15616300
6.19999996,1.22837000
6.23999996,1.28257100
6.27999996,1.31870500
6.31999996,1.33677200
6.35999996,1.33677200
6.39999996,1.31870500
6.43999996,1.30063800
6.47999996,1.22837000
6.51999996,1.15616300
6.55999996,1.08389500
6.59999996,0.97549360
6.63999996,0.84902500
6.67999996,0.74062320
6.71999996,0.61415450
6.75999996,0.48774680
6.79999996,0.34321110
6.83999996,0.21674250
6.87999996,0.10834070
6.91999996,0.00000000
6.95999996,-0.10834070
6.99999996,-0.19867550
7.03999996,-0.28901030
7.07999996,-0.36127810
7.11999996,-0.45161290
7.15999996,-0.52388070
7.19999996,-0.57808160
7.23999996,-0.65028840
7.27999996,-0.72255620
7.31999996,-0.79482410
7.35999996,-0.86709190
7.39999996,-0.93935970
7.43999995,-1.01162800
7.47999995,-1.06582800
7.51999995,-1.12002900
7.55999995,-1.17416900
7.59999995,-1.21030300
7.63999995,-1.24643700
7.67999995,-1.26450400
7.71999995,-1.26450400
7.75999995,-1.26450400
7.79999995,-1.22837000
7.83999995,-1.19223600
7.87999995,-1.12002900
7.91999995,-1.04776100
7.95999995,-0.93935970
7.99999995,-0.84902500
8.03999995,-0.72255620
8.07999995,-0.59608750
8.11999995,-0.46967990
8.15999995,-0.36127810
8.19999995,-0.21674250
8.23999995,-0.09027375
8.27999995,0.01800592
8.31999995,0.14447460
8.35999995,0.25287640
8.39999995,0.34321110
8.43999995,0.43354590
8.47999995,0.52388070
8.51999995,0.59608750
8.55999995,0.66835530
8.59999995,0.75869010
8.63999995,0.83095790
8.67999995,0.92129280
8.71999995,0.99356060
8.75999995,1.08389500
8.79999995,1.15616300
8.83999995,1.22837000
8.87999995,1.28257100
8.91999995,1.31870500
8.95999995,1.33677200
8.99999995,1.35483900
9.03999995,1.33677200
9.07999994,1.30063800
9.11999994,1.24643700
9.15999994,1.17416900
9.19999994,1.08389500
9.23999994,0.99356060
9.27999994,0.88515880
9.31999994,0.75869010
9.35999994,0.63222150
9.39999994,0.50581380
9.43999994,0.36127810
9.47999994,0.25287640
9.51999994,0.14447460
9.55999994,0.01800592
9.59999994,-0.09027375
9.63999994,-0.18060850
9.67999994,-0.27094330
9.71999994,-0.36127810
9.75999994,-0.43354590
9.79999994,-0.50581380
9.83999994,-0.56001470
9.87999994,-0.63222150
9.91999994,-0.70448930
9.95999994,-0.77675710
9.99999994,-0.84902500
10.03999994,-0.90322580
10.07999994,-0.97549360
10.11999994,-1.04776100
10.15999994,-1.12002900
10.19999994,-1.15616300
10.23999994,-1.21030300
10.27999994,-1.26450400
10.31999994,-1.26450400
10.35999994,-1.28257100
10.39999994,-1.26450400
10.43999994,-1.24643700
10.47999994,-1.19223600
10.51999994,-1.13809600
10.55999994,-1.06582800
10.59999994,-0.97549360
10.63999994,-0.86709190
10.67999994,-0.74062320
10.71999993,-0.61415450
10.75999993,-0.48774680
10.79999993,-0.36127810
10.83999993,-0.23480940
10.87999993,-0.10834070
10.91999993,0.00000000
10.95999993,0.12640770
10.99999993,0.23480940
11.03999993,0.30707720
11.07999993,0.41547900
11.11999993,0.50581380
11.15999993,0.57808160
11.19999993,0.65028840
11.23999993,0.72255620
11.27999993,0.81289100
11.31999993,0.88515880
11.35999993,0.97549360
11.39999993,1.06582800
11.43999993,1.13809600
11.47999993,1.21030300
11.51999993,1.26450400
11.55999993,1.31870500
11.59999993,1.33677200
11.63999993,1.35483900
11.67999993,1.35483900
11.71999993,1.31870500
11.75999993,1.26450400
11.79999993,1.21030300
11.83999993,1.12002900
11.87999993,1.01162800
11.91999993,0.90322580
11.95999993,0.79482410
11.99999993,0.65028840
12.03999993,0.54194770
12.07999993,0.41547900
12.11999993,0.28901030
12.15999993,0.16254160
12.19999993,0.03607288
12.23999993,-0.07220680
12.27999993,-0.16254160
12.31999993,-0.25287640
12.35999992,-0.34321110
12.39999992,-0.41547900
12.43999992,-0.50581380
12.47999992,-0.56001470
12.51999992,-0.63222150
12.55999992,-0.68642230
12.59999992,-0.75869010
12.63999992,-0.83095790
12.67999992,-0.88515880
12.71999992,-0.95742670
12.75999992,-1.02969500
12.79999992,-1.10196200
12.83999992,-1.15616300
12.87999992,-1.19223600
12.91999992,-1.22837000
12.95999992,-1.26450400
12.99999992,-1.28257100
13.03999992,-1.26450400
13.07999992,-1.24643700
13.11999992,-1.21030300
13.15999992,-1.15616300
13.19999992,-1.08389500
13.23999992,-0.99356060
13.27999992,-0.88515880
13.31999992,-0.77675710
13.35999992,-0.65028840
13.39999992,-0.52388070
13.43999992,-0.37934510
13.47999992,-0.25287640
13.51999992,-0.14447460
13.55999992,-0.01800592
13.59999992,0.10834070
13.63999992,0.21674250
13.67999992,0.30707720
13.71999992,0.39741200
13.75999992,0.48774680
13.79999992,0.57808160
13.83999992,0.65028840
13.87999992,0.72255620
13.91999992,0.79482410
13.95999992,0.88515880
13.99999991,0.95742670
14.03999991,1.04776100
14.07999991,1.10196200
14.11999991,1.17416900
14.15999991,1.22837000
14.19999991,1.28257100
14.23999991,1.31870500
14.27999991,1.33677200
14.31999991,1.31870500
14.35999991,1.30063800
14.39999991,1.28257100
14.43999991,1.21030300
14.47999991,1.13809600
14.51999991,1.04776100
14.55999991,0.93935970
14.59999991,0.81289100
14.63999991,0.70448930
14.67999991,0.57808160
14.71999991,0.45161290
14.75999991,0.32514420
14.79999991,0.19867550
14.83999991,0.07220680
14.87999991,-0.03607288
14.91999991,-0.14447460
14.95999991,-0.23480940
14.99999991,-0.32514420
15.03999991,-0.41547900
15.07999991,-0.48774680
15.11999991,-0.56001470
15.15999991,-0.61415450
15.19999991,-0.68642230
15.23999991,-0.75869010
15.27999991,-0.81289100
15.31999991,-0.88515880
15.35999991,-0.95742670
15.39999991,-1.01162800
15.43999991,-1.08389500
15.47999991,-1.13809600
15.51999991,-1.17416900
15.55999991,-1.22837000
15.59999991,-1.24643700
15.63999990,-1.26450400
15.67999990,-1.26450400
15.71999990,-1.24643700
15.75999990,-1.21030300
15.79999990,-1.15616300
15.83999990,-1.08389500
15.87999990,-1.01162800
15.91999990,-0.90322580
15.95999990,-0.81289100
15.99999990,-0.68642230
16.03999990,-0.56001470
16.07999990,-0.43354590
16.11999990,-0.30707720
16.15999990,-0.18060850
16.19999990,-0.07220680
16.23999990,0.05413984
16.27999990,0.18060850
16.31999990,0.28901030
16.35999990,0.37934510
16.39999990,0.46967990
16.43999990,0.56001470
16.47999990,0.63222150
16.51999990,0.70448930
16.55999990,0.79482410
16.59999990,0.86709190
16.63999990,0.93935970
16.67999990,1.04776100
16.71999990,1.10196200
16.75999990,1.17416900
16.79999990,1.22837000
16.83999990,1.30063800
16.87999990,1.31870500
16.91999990,1.33677200
16.95999990,1.33677200
16.99999990,1.31870500
17.03999990,1.28257100
17.07999990,1.22837000
17.11999990,1.13809600
17.15999990,1.06582800
17.19999990,0.93935970
17.23999990,0.83095790
17.27999989,0.72255620
17.31999989,0.59608750
17.35999989,0.46967990
17.39999989,0.34321110
17.43999989,0.21674250
17.47999989,0.09027375
17.51999989,-0.01800592
17.55999989,-0.10834070
17.59999989,-0.21674250
17.63999989,-0.30707720
17.67999989,-0.37934510
17.71999989,-0.45161290
17.75999989,-0.52388070
17.79999989,-0.59608750
17.83999989,-0.66835530
17.87999989,-0.74062320
17.91999989,-0.81289100
17.95999989,-0.86709190
17.99999989,-0.93935970
18.03999989,-1.01162800
18.07999989,-1.08389500
18.11999989,-1.13809600
18.15999989,-1.17416900
18.19999989,-1.22837000
18.23999989,-1.24643700
18.27999989,-1.26450400
18.31999989,-1.28257100
18.35999989,-1.26450400
18.39999989,-1.22837000
18.43999989,-1.19223600
18.47999989,-1.10196200
18.51999989,-1.02969500
18.55999989,-0.93935970
18.59999989,-0.83095790
18.63999989,-0.70448930
18.67999989,-0.57808160
18.71999989,-0.45161290
18.75999989,-0.32514420
18.79999989,-0.19867550
18.83999989,-0.07220680
18.87999989,0.05413984
18.91999989,0.16254160
18.95999988,0.27094330
18.99999988,0.36127810
19.03999988,0.45161290
19.07999988,0.54194770
19.11999988,0.61415450
19.15999988,0.68642230
19.19999988,0.75869010
19.23999988,0.84902500
19.27999988,0.92129280
19.31999988,1.01162800
19.35999988,1.08389500
19.39999988,1.15616300
19.43999988,1.22837000
19.47999988,1.28257100
19.51999988,1.31870500
19.55999988,1.33677200
19.59999988,1.35483900
19.63999988,1.33677200
19.67999988,1.30063800
19.71999988,1.24643700
19.75999988,1.17416900
19.79999988,1.08389500
19.83999988,0.99356060
19.87999988,0.86709190
19.91999988,0.74062320
19.95999988,0.61415450
19.99999988,0.48774680
20.03999988,0.34321110
20.07999988,0.23480940
20.11999988,0.10834070
20.15999988,-0.01800592
20.19999988,-0.10834070
20.23999988,-0.19867550
20.27999988,-0.28901030
20.31999988,-0.36127810
20.35999988,-0.43354590
20.39999988,-0.52388070
20.43999988,-0.57808160
20.47999988,-0.65028840
20.51999988,-0.72255620
20.55999988,-0.79482410
20.59999987,-0.84902500
20.63999987,-0.92129280
20.67999987,-0.99356060
20.71999987,-1.06582800
20.75999987,-1.12002900
20.79999987,-1.17416900
20.83999987,-1.22837000
20.87999987,-1.24643700
20.91999987,-1.26450400
20.95999987,-1.28257100
20.99999987,-1.28257100
21.03999987,-1.24643700
21.07999987,-1.19223600
21.11999987,-1.13809600
21.15999987,-1.04776100
21.19999987,-0.95742670
21.23999987,-0.84902500
21.27999987,-0.72255620
21.31999987,-0.59608750
21.35999987,-0.46967990
21.39999987,-0.34321110
21.43999987,-0.21674250
21.47999987,-0.09027375
21.51999987,0.03607288
21.55999987,0.14447460
21.59999987,0.25287640
21.63999987,0.34321110
21.67999987,0.43354590
21.71999987,0.52388070
21.75999987,0.61415450
21.79999987,0.68642230
21.83999987,0.75869010
21.87999987,0.83095790
21.91999987,0.92129280
21.95999987,0.99356060
21.99999987,1.08389500
22.03999987,1.15616300
22.07999987,1.21030300
22.11999987,1.26450400
22.15999987,1.31870500
22.19999987,1.33677200
22.23999986,1.35483900
22.27999986,1.33677200
22.31999986,1.30063800
22.35999986,1.26450400
22.39999986,1.19223600
22.43999986,1.10196200
22.47999986,1.01162800
22.51999986,0.90322580
22.55999986,0.77675710
22.59999986,0.65028840
22.63999986,0.52388070
22.67999986,0.39741200
22.71999986,0.27094330
22.75999986,0.14447460
22.79999986,0.01800592
22.83999986,-0.09027375
22.87999986,-0.18060850
22.91999986,-0.27094330
22.95999986,-0.36127810
22.99999986,-0.43354590
23.03999986,-0.50581380
23.07999986,-0.57808160
23.11999986,-0.65028840
23.15999986,-0.70448930
23.19999986,-0.77675710
23.23999986,-0.84902500
23.27999986,-0.90322580
23.31999986,-0.97549360
23.35999986,-1.04776100
23.39999986,-1.10196200
23.43999986,-1.15616300
23.47999986,-1.21030300
23.51999986,-1.24643700
23.55999986,-1.26450400
23.59999986,-1.28257100
23.63999986,-1.26450400
23.67999986,-1.24643700
23.71999986,-1.21030300
23.75999986,-1.15616300
23.79999986,-1.08389500
23.83999986,-0.97549360
23.87999985,-0.86709190
23.91999985,-0.75869010
23.95999985,-0.65028840
23.99999985,-0.50581380
24.03999985,-0.37934510
24.07999985,-0.25287640
24.11999985,-0.10834070
24.15999985,0.00000000
24.19999985,0.12640770
24.23999985,0.21674250
24.27999985,0.32514420
24.31999985,0.41547900
24.35999985,0.50581380
24.39999985,0.57808160
24.43999985,0.66835530
24.47999985,0.74062320
24.51999985,0.81289100
24.55999985,0.90322580
24.59999985,0.99356060
24.63999985,1.06582800
24.67999985,1.12002900
24.71999985,1.19223600
24.75999985,1.26450400
24.79999985,1.30063800
24.83999985,1.33677200
24.87999985,1.33677200
24.91999985,1.33677200
24.95999985,1.30063800
24.99999985,1.28257100
25.03999985,1.21030300
25.07999985,1.12002900
25.11999985,1.02969500
25.15999985,0.92129280
25.19999985,0.79482410
25.23999985,0.68642230
25.27999985,0.56001470
25.31999985,0.43354590
25.35999985,0.28901030
25.39999985,0.18060850
25.43999985,0.05413984
25.47999985,-0.05413984
25.51999984,-0.14447460
25.55999984,-0.23480940
25.59999984,-0.34321110
25.63999984,-0.43354590
25.67999984,-0.48774680
25.71999984,-0.57808160
25.75999984,-0.63222150
25.79999984,-0.70448930
25.83999984,-0.77675710
25.87999984,-0.83095790
25.91999984,-0.90322580
25.95999984,-0.97549360
25.99999984,-1.02969500
26.03999984,-1.10196200
26.07999984,-1.15616300
26.11999984,-1.19223600
26.15999984,-1.22837000
26.19999984,-1.26450400
26.23999984,-1.26450400
26.27999984,-1.28257100
26.31999984,-1.24643700
26.35999984,-1.21030300
26.39999984,-1.15616300
26.43999984,-1.08389500
26.47999984,-1.01162800
26.51999984,-0.90322580
26.55999984,-0.79482410
26.59999984,-0.66835530
26.63999984,-0.54194770
26.67999984,-0.41547900
26.71999984,-0.28901030
26.75999984,-0.16254160
26.79999984,-0.03607288
26.83999984,0.07220680
26.87999984,0.19867550
26.91999984,0.28901030
26.95999984,0.39741200
26.99999984,0.48774680
27.03999984,0.57808160
27.07999984,0.65028840
27.11999984,0.72255620
27.15999983,0.79482410
27.19999983,0.90322580
27.23999983,0.95742670
27.27999983,1.04776100
27.31999983,1.12002900
27.35999983,1.17416900
27.39999983,1.24643700
27.43999983,1.30063800
27.47999983,1.31870500
27.51999983,1.33677200
27.55999983,1.33677200
27.59999983,1.30063800
27.63999983,1.26450400
27.67999983,1.21030300
27.71999983,1.13809600
27.75999983,1.04776100
27.79999983,0.93935970
27.83999983,0.83095790
27.87999983,0.70448930
27.91999983,0.57808160
27.95999983,0.45161290
27.99999983,0.32514420
28.03999983,0.21674250
28.07999983,0.09027375
28.11999983,-0.01800592
28.15999983,-0.12640770
28.19999983,-0.21674250
28.23999983,-0.30707720
28.27999983,-0.39741200
28.31999983,-0.48774680
28.35999983,-0.54194770
28.39999983,-0.61415450
28.43999983,-0.68642230
28.47999983,-0.75869010
28.51999983,-0.83095790
28.55999983,-0.88515880
28.59999983,-0.95742670
28.63999983,-1.02969500
28.67999983,-1.08389500
28.71999983,-1.13809600
28.75999983,-1.17416900
28.79999982,-1.22837000
28.83999982,-1.24643700
28.87999982,-1.26450400
28.91999982,-1.26450400
28.95999982,-1.24643700
28.99999982,-1.22837000
29.03999982,-1.17416900
29.07999982,-1.10196200
29.11999982,-1.01162800
29.15999982,-0.92129280
29.19999982,-0.81289100
29.23999982,-0.68642230
29.27999982,-0.57808160
29.31999982,-0.45161290
29.35999982,-0.30707720
29.39999982,-0.19867550
29.43999982,-0.07220680
29.47999982,0.05413984
29.51999982,0.16254160
29.55999982,0.28901030
29.59999982,0.36127810
29.63999982,0.46967990
29.67999982,0.54194770
29.71999982,0.61415450
29.75999982,0.72255620
29.79999982,0.79482410
29.83999982,0.86709190
29.87999982,0.95742670
29.91999982,1.02969500
29.95999982,1.10196200
29.99999982,1.17416900
30.03999982,1.22837000
30.07999982,1.28257100
30.11999982,1.31870500
30.15999982,1.33677200
30.19999982,1.33677200
30.23999982,1.31870500
30.27999982,1.28257100
30.31999982,1.22837000
30.35999982,1.15616300
30.39999982,1.06582800
30.43999982,0.95742670
30.47999981,0.84902500
30.51999981,0.72255620
30.55999981,0.59608750
30.59999981,0.48774680
30.63999981,0.34321110
30.67999981,0.23480940
30.71999981,0.10834070
30.75999981,0.00000000
30.79999981,-0.10834070
30.83999981,-0.21674250
30.87999981,-0.30707720
30.91999981,-0.37934510
30.95999981,-0.45161290
30.99999981,-0.52388070
31.03999981,-0.59608750
31.07999981,-0.66835530
31.11999981,-0.74062320
31.15999981,-0.79482410
31.19999981,-0.86709190
31.23999981,-0.93935970
31.27999981,-1.01162800
31.31999981,-1.08389500
31.35999981,-1.13809600
31.39999981,-1.17416900
31.43999981,-1.22837000
31.47999981,-1.24643700
31.51999981,-1.28257100
31.55999981,-1.26450400
31.59999981,-1.26450400
31.63999981,-1.22837000
31.67999981,-1.17416900
31.71999981,-1.12002900
31.75999981,-1.02969500
31.79999981,-0.93935970
31.83999981,-0.83095790
31.87999981,-0.72255620
31.91999981,-0.59608750
31.95999981,-0.46967990
31.99999981,-0.34321110
32.03999981,-0.21674250
32.07999981,-0.09027375
32.11999980,0.03607288
32.15999980,0.14447460
32.19999980,0.25287640
32.23999980,0.34321110
32.27999980,0.43354590
32.31999980,0.52388070
32.35999980,0.59608750
32.39999980,0.68642230
32.43999980,0.75869010
32.47999980,0.84902500
32.51999980,0.93935970
32.55999980,1.01162800
32.59999980,1.08389500
32.63999980,1.15616300
32.67999980,1.22837000
32.71999980,1.28257100
32.75999980,1.31870500
32.79999980,1.33677200
32.83999980,1.33677200
32.87999980,1.31870500
32.91999980,1.30063800
32.95999980,1.24643700
