Time	Channel A
(us)	(V)

0.00000000	1.31870500
0.04000000	1.28257100
0.08000000	1.22837000
0.12000000	1.13809600
0.16000000	1.04776100
0.20000000	0.95742670
0.24000000	0.83095790
0.28000000	0.70448930
0.32000000	0.57808160
0.36000000	0.45161290
0.40000000	0.32514420
0.44000000	0.21674250
0.48000000	0.07220680
0.52000000	-0.01800592
0.56000000	-0.12640770
0.60000000	-0.21674250
0.64000000	-0.30707720
0.68000000	-0.37934510
0.72000000	-0.45161290
0.76000000	-0.54194770
0.80000000	-0.59608750
0.83999999	-0.66835530
0.87999999	-0.74062320
0.91999999	-0.81289100
0.95999999	-0.88515880
0.99999999	-0.93935970
1.03999999	-1.01162800
1.07999999	-1.08389500
1.11999999	-1.13809600
1.15999999	-1.19223600
1.19999999	-1.22837000
1.23999999	-1.26450400
1.27999999	-1.28257100
1.31999999	-1.28257100
1.35999999	-1.24643700
1.39999999	-1.22837000
1.43999999	-1.17416900
1.47999999	-1.10196200
1.51999999	-1.01162800
1.55999999	-0.92129280
1.59999999	-0.81289100
1.63999999	-0.68642230
1.67999999	-0.57808160
1.71999999	-0.43354590
1.75999999	-0.30707720
1.79999999	-0.19867550
1.83999999	-0.07220680
1.87999999	0.05413984
1.91999999	0.16254160
1.95999999	0.27094330
1.99999999	0.36127810
2.03999999	0.46967990
2.07999999	0.54194770
2.11999999	0.61415450
2.15999999	0.70448930
2.19999999	0.77675710
2.23999999	0.84902500
2.27999999	0.93935970
2.31999999	1.01162800
2.35999999	1.08389500
2.39999999	1.15616300
2.43999999	1.22837000
2.47999998	1.30063800
2.51999998	1.31870500
2.55999998	1.35483900
2.59999998	1.35483900
2.63999998	1.33677200
2.67999998	1.30063800
2.71999998	1.22837000
2.75999998	1.15616300
2.79999998	1.08389500
2.83999998	0.97549360
2.87999998	0.86709190
2.91999998	0.74062320
2.95999998	0.61415450
2.99999998	0.48774680
3.03999998	0.36127810
3.07999998	0.21674250
3.11999998	0.10834070
3.15999998	0.00000000
3.19999998	-0.10834070
3.23999998	-0.21674250
3.27999998	-0.30707720
3.31999998	-0.37934510
3.35999998	-0.43354590
3.39999998	-0.52388070
3.43999998	-0.57808160
3.47999998	-0.65028840
3.51999998	-0.72255620
3.55999998	-0.79482410
3.59999998	-0.86709190
3.63999998	-0.93935970
3.67999998	-1.01162800
3.71999998	-1.06582800
3.75999998	-1.12002900
3.79999998	-1.17416900
3.83999998	-1.22837000
3.87999998	-1.24643700
3.91999998	-1.28257100
3.95999998	-1.28257100
3.99999998	-1.26450400
4.03999998	-1.22837000
4.07999998	-1.19223600
4.11999997	-1.12002900
4.15999997	-1.02969500
4.19999997	-0.93935970
4.23999997	-0.84902500
4.27999997	-0.72255620
4.31999997	-0.59608750
4.35999997	-0.46967990
4.39999997	-0.34321110
4.43999997	-0.21674250
4.47999997	-0.09027375
4.51999997	0.03607288
4.55999997	0.14447460
4.59999997	0.25287640
4.63999997	0.34321110
4.67999997	0.45161290
4.71999997	0.52388070
4.75999997	0.59608750
4.79999997	0.68642230
4.83999997	0.75869010
4.87999997	0.83095790
4.91999997	0.92129280
4.95999997	0.99356060
4.99999997	1.08389500
5.03999997	1.15616300
5.07999997	1.21030300
5.11999997	1.28257100
5.15999997	1.30063800
5.19999997	1.33677200
5.23999997	1.33677200
5.27999997	1.31870500
5.31999997	1.30063800
5.35999997	1.24643700
5.39999997	1.17416900
5.43999997	1.10196200
5.47999997	0.99356060
5.51999997	0.90322580
5.55999997	0.77675710
5.59999997	0.63222150
5.63999997	0.50581380
5.67999997	0.37934510
5.71999997	0.25287640
5.75999996	0.14447460
5.79999996	0.01800592
5.83999996	-0.07220680
5.87999996	-0.18060850
5.91999996	-0.27094330
5.95999996	-0.36127810
5.99999996	-0.43354590
6.03999996	-0.50581380
6.07999996	-0.57808160
6.11999996	-0.65028840
6.15999996	-0.72255620
6.19999996	-0.79482410
6.23999996	-0.84902500
6.27999996	-0.92129280
6.31999996	-1.01162800
6.35999996	-1.04776100
6.39999996	-1.12002900
6.43999996	-1.17416900
6.47999996	-1.21030300
6.51999996	-1.24643700
6.55999996	-1.26450400
6.59999996	-1.26450400
6.63999996	-1.26450400
6.67999996	-1.24643700
6.71999996	-1.19223600
6.75999996	-1.13809600
6.79999996	-1.06582800
6.83999996	-0.95742670
6.87999996	-0.86709190
6.91999996	-0.74062320
6.95999996	-0.61415450
6.99999996	-0.50581380
7.03999996	-0.36127810
7.07999996	-0.25287640
7.11999996	-0.12640770
7.15999996	0.00000000
7.19999996	0.12640770
7.23999996	0.21674250
7.27999996	0.32514420
7.31999996	0.41547900
7.35999996	0.50581380
7.39999996	0.57808160
7.43999995	0.65028840
7.47999995	0.74062320
7.51999995	0.83095790
7.55999995	0.90322580
7.59999995	0.99356060
7.63999995	1.08389500
7.67999995	1.13809600
7.71999995	1.21030300
7.75999995	1.26450400
7.79999995	1.30063800
7.83999995	1.33677200
7.87999995	1.33677200
7.91999995	1.33677200
7.95999995	1.30063800
7.99999995	1.26450400
8.03999995	1.19223600
8.07999995	1.12002900
8.11999995	1.01162800
8.15999995	0.90322580
8.19999995	0.79482410
8.23999995	0.65028840
8.27999995	0.54194770
8.31999995	0.41547900
8.35999995	0.28901030
8.39999995	0.16254160
8.43999995	0.05413984
8.47999995	-0.05413984
8.51999995	-0.14447460
8.55999995	-0.23480940
8.59999995	-0.32514420
8.63999995	-0.41547900
8.67999995	-0.48774680
8.71999995	-0.56001470
8.75999995	-0.61415450
8.79999995	-0.68642230
8.83999995	-0.77675710
8.87999995	-0.83095790
8.91999995	-0.90322580
8.95999995	-0.97549360
8.99999995	-1.02969500
9.03999995	-1.10196200
9.07999994	-1.15616300
9.11999994	-1.21030300
9.15999994	-1.24643700
9.19999994	-1.28257100
9.23999994	-1.28257100
9.27999994	-1.28257100
9.31999994	-1.24643700
9.35999994	-1.21030300
9.39999994	-1.15616300
9.43999994	-1.08389500
9.47999994	-0.99356060
9.51999994	-0.88515880
9.55999994	-0.75869010
9.59999994	-0.65028840
9.63999994	-0.52388070
9.67999994	-0.39741200
9.71999994	-0.27094330
9.75999994	-0.14447460
9.79999994	-0.01800592
9.83999994	0.09027375
9.87999994	0.19867550
9.91999994	0.28901030
9.95999994	0.37934510
9.99999994	0.48774680
10.03999994	0.56001470
10.07999994	0.63222150
10.11999994	0.72255620
10.15999994	0.79482410
10.19999994	0.88515880
10.23999994	0.95742670
10.27999994	1.04776100
10.31999994	1.12002900
10.35999994	1.19223600
10.39999994	1.24643700
10.43999994	1.30063800
10.47999994	1.33677200
10.51999994	1.35483900
10.55999994	1.33677200
10.59999994	1.31870500
10.63999994	1.28257100
10.67999994	1.21030300
10.71999993	1.13809600
10.75999993	1.04776100
10.79999993	0.93935970
10.83999993	0.81289100
10.87999993	0.70448930
10.91999993	0.57808160
10.95999993	0.43354590
10.99999993	0.30707720
11.03999993	0.18060850
11.07999993	0.05413984
11.11999993	-0.03607288
11.15999993	-0.14447460
11.19999993	-0.23480940
11.23999993	-0.32514420
11.27999993	-0.41547900
11.31999993	-0.48774680
11.35999993	-0.54194770
11.39999993	-0.59608750
11.43999993	-0.68642230
11.47999993	-0.74062320
11.51999993	-0.81289100
11.55999993	-0.88515880
11.59999993	-0.95742670
11.63999993	-1.01162800
11.67999993	-1.08389500
11.71999993	-1.13809600
11.75999993	-1.19223600
11.79999993	-1.22837000
11.83999993	-1.26450400
11.87999993	-1.28257100
11.91999993	-1.28257100
11.95999993	-1.26450400
11.99999993	-1.22837000
12.03999993	-1.17416900
12.07999993	-1.10196200
12.11999993	-1.01162800
12.15999993	-0.92129280
12.19999993	-0.81289100
12.23999993	-0.68642230
12.27999993	-0.56001470
12.31999993	-0.43354590
12.35999992	-0.30707720
12.39999992	-0.16254160
12.43999992	-0.03607288
12.47999992	0.07220680
12.51999992	0.18060850
12.55999992	0.28901030
12.59999992	0.37934510
12.63999992	0.46967990
12.67999992	0.56001470
12.71999992	0.63222150
12.75999992	0.72255620
12.79999992	0.77675710
12.83999992	0.86709190
12.87999992	0.93935970
12.91999992	1.01162800
12.95999992	1.10196200
12.99999992	1.17416900
13.03999992	1.22837000
13.07999992	1.28257100
13.11999992	1.31870500
13.15999992	1.33677200
13.19999992	1.33677200
13.23999992	1.31870500
13.27999992	1.30063800
13.31999992	1.22837000
13.35999992	1.15616300
13.39999992	1.06582800
13.43999992	0.97549360
13.47999992	0.84902500
13.51999992	0.72255620
13.55999992	0.59608750
13.59999992	0.46967990
13.63999992	0.34321110
13.67999992	0.21674250
13.71999992	0.09027375
13.75999992	0.00000000
13.79999992	-0.12640770
13.83999992	-0.21674250
13.87999992	-0.30707720
13.91999992	-0.39741200
13.95999992	-0.46967990
13.99999991	-0.54194770
14.03999991	-0.59608750
14.07999991	-0.66835530
14.11999991	-0.72255620
14.15999991	-0.81289100
14.19999991	-0.86709190
14.23999991	-0.93935970
14.27999991	-1.01162800
14.31999991	-1.08389500
14.35999991	-1.12002900
14.39999991	-1.17416900
14.43999991	-1.22837000
14.47999991	-1.24643700
14.51999991	-1.26450400
14.55999991	-1.26450400
14.59999991	-1.26450400
14.63999991	-1.22837000
14.67999991	-1.17416900
14.71999991	-1.12002900
14.75999991	-1.02969500
14.79999991	-0.93935970
14.83999991	-0.83095790
14.87999991	-0.72255620
14.91999991	-0.59608750
14.95999991	-0.45161290
14.99999991	-0.32514420
15.03999991	-0.21674250
15.07999991	-0.07220680
15.11999991	0.03607288
15.15999991	0.16254160
15.19999991	0.27094330
15.23999991	0.36127810
15.27999991	0.45161290
15.31999991	0.54194770
15.35999991	0.61415450
15.39999991	0.70448930
15.43999991	0.77675710
15.47999991	0.84902500
15.51999991	0.93935970
15.55999991	1.01162800
15.59999991	1.08389500
15.63999990	1.15616300
15.67999990	1.22837000
15.71999990	1.28257100
15.75999990	1.30063800
15.79999990	1.33677200
15.83999990	1.33677200
15.87999990	1.33677200
15.91999990	1.30063800
15.95999990	1.22837000
15.99999990	1.17416900
16.03999990	1.08389500
16.07999990	0.99356060
16.11999990	0.86709190
16.15999990	0.74062320
16.19999990	0.61415450
16.23999990	0.48774680
16.27999990	0.36127810
16.31999990	0.23480940
16.35999990	0.12640770
16.39999990	0.00000000
16.43999990	-0.09027375
16.47999990	-0.19867550
16.51999990	-0.28901030
16.55999990	-0.36127810
16.59999990	-0.43354590
16.63999990	-0.52388070
16.67999990	-0.57808160
16.71999990	-0.65028840
16.75999990	-0.72255620
16.79999990	-0.79482410
16.83999990	-0.86709190
16.87999990	-0.93935970
16.91999990	-1.01162800
16.95999990	-1.06582800
16.99999990	-1.12002900
17.03999990	-1.17416900
17.07999990	-1.22837000
17.11999990	-1.24643700
17.15999990	-1.26450400
17.19999990	-1.28257100
17.23999990	-1.26450400
17.27999989	-1.22837000
17.31999989	-1.19223600
17.35999989	-1.12002900
17.39999989	-1.04776100
17.43999989	-0.95742670
17.47999989	-0.84902500
17.51999989	-0.72255620
17.55999989	-0.61415450
17.59999989	-0.48774680
17.63999989	-0.36127810
17.67999989	-0.23480940
17.71999989	-0.09027375
17.75999989	0.00000000
17.79999989	0.12640770
17.83999989	0.23480940
17.87999989	0.32514420
17.91999989	0.43354590
17.95999989	0.50581380
17.99999989	0.59608750
18.03999989	0.68642230
18.07999989	0.75869010
18.11999989	0.84902500
18.15999989	0.92129280
18.19999989	1.01162800
18.23999989	1.08389500
18.27999989	1.15616300
18.31999989	1.22837000
18.35999989	1.28257100
18.39999989	1.31870500
18.43999989	1.33677200
18.47999989	1.33677200
18.51999989	1.33677200
18.55999989	1.30063800
18.59999989	1.24643700
18.63999989	1.19223600
18.67999989	1.10196200
18.71999989	1.01162800
18.75999989	0.88515880
18.79999989	0.77675710
18.83999989	0.65028840
18.87999989	0.50581380
18.91999989	0.37934510
18.95999988	0.27094330
18.99999988	0.14447460
19.03999988	0.03607288
19.07999988	-0.07220680
19.11999988	-0.18060850
19.15999988	-0.27094330
19.19999988	-0.36127810
19.23999988	-0.43354590
19.27999988	-0.50581380
19.31999988	-0.57808160
19.35999988	-0.65028840
19.39999988	-0.70448930
19.43999988	-0.77675710
19.47999988	-0.84902500
19.51999988	-0.92129280
19.55999988	-0.97549360
19.59999988	-1.06582800
19.63999988	-1.12002900
19.67999988	-1.15616300
19.71999988	-1.21030300
19.75999988	-1.24643700
19.79999988	-1.26450400
19.83999988	-1.26450400
19.87999988	-1.26450400
19.91999988	-1.24643700
19.95999988	-1.19223600
19.99999988	-1.13809600
20.03999988	-1.06582800
20.07999988	-0.95742670
20.11999988	-0.86709190
20.15999988	-0.74062320
20.19999988	-0.63222150
20.23999988	-0.50581380
20.27999988	-0.37934510
20.31999988	-0.25287640
20.35999988	-0.12640770
20.39999988	0.00000000
20.43999988	0.10834070
20.47999988	0.21674250
20.51999988	0.32514420
20.55999988	0.41547900
20.59999987	0.50581380
20.63999987	0.57808160
20.67999987	0.65028840
20.71999987	0.74062320
20.75999987	0.81289100
20.79999987	0.90322580
20.83999987	0.99356060
20.87999987	1.06582800
20.91999987	1.13809600
20.95999987	1.21030300
20.99999987	1.26450400
21.03999987	1.31870500
21.07999987	1.33677200
21.11999987	1.33677200
21.15999987	1.33677200
21.19999987	1.30063800
21.23999987	1.26450400
21.27999987	1.19223600
21.31999987	1.12002900
21.35999987	1.01162800
21.39999987	0.90322580
21.43999987	0.79482410
21.47999987	0.66835530
21.51999987	0.54194770
21.55999987	0.43354590
21.59999987	0.28901030
21.63999987	0.16254160
21.67999987	0.05413984
21.71999987	-0.05413984
21.75999987	-0.14447460
21.79999987	-0.25287640
21.83999987	-0.32514420
21.87999987	-0.41547900
21.91999987	-0.48774680
21.95999987	-0.56001470
21.99999987	-0.63222150
22.03999987	-0.70448930
22.07999987	-0.77675710
22.11999987	-0.83095790
22.15999987	-0.90322580
22.19999987	-0.97549360
22.23999986	-1.02969500
22.27999986	-1.10196200
22.31999986	-1.15616300
22.35999986	-1.19223600
22.39999986	-1.22837000
22.43999986	-1.24643700
22.47999986	-1.28257100
22.51999986	-1.26450400
22.55999986	-1.24643700
22.59999986	-1.19223600
22.63999986	-1.15616300
22.67999986	-1.08389500
22.71999986	-0.99356060
22.75999986	-0.88515880
22.79999986	-0.77675710
22.83999986	-0.65028840
22.87999986	-0.52388070
22.91999986	-0.39741200
22.95999986	-0.27094330
22.99999986	-0.14447460
23.03999986	-0.01800592
23.07999986	0.07220680
23.11999986	0.19867550
23.15999986	0.28901030
23.19999986	0.39741200
23.23999986	0.48774680
23.27999986	0.57808160
23.31999986	0.65028840
23.35999986	0.72255620
23.39999986	0.79482410
23.43999986	0.88515880
23.47999986	0.95742670
23.51999986	1.04776100
23.55999986	1.12002900
23.59999986	1.19223600
23.63999986	1.24643700
23.67999986	1.30063800
23.71999986	1.31870500
23.75999986	1.35483900
23.79999986	1.33677200
23.83999986	1.31870500
23.87999985	1.28257100
23.91999985	1.21030300
23.95999985	1.13809600
23.99999985	1.04776100
24.03999985	0.93935970
24.07999985	0.81289100
24.11999985	0.70448930
24.15999985	0.57808160
24.19999985	0.43354590
24.23999985	0.30707720
24.27999985	0.19867550
24.31999985	0.07220680
24.35999985	-0.03607288
24.39999985	-0.14447460
24.43999985	-0.21674250
24.47999985	-0.30707720
24.51999985	-0.39741200
24.55999985	-0.46967990
24.59999985	-0.54194770
24.63999985	-0.61415450
24.67999985	-0.68642230
24.71999985	-0.74062320
24.75999985	-0.81289100
24.79999985	-0.88515880
24.83999985	-0.95742670
24.87999985	-1.01162800
24.91999985	-1.08389500
24.95999985	-1.15616300
24.99999985	-1.19223600
25.03999985	-1.22837000
25.07999985	-1.26450400
25.11999985	-1.26450400
25.15999985	-1.26450400
25.19999985	-1.24643700
25.23999985	-1.21030300
25.27999985	-1.15616300
25.31999985	-1.10196200
25.35999985	-1.01162800
25.39999985	-0.90322580
25.43999985	-0.79482410
25.47999985	-0.68642230
25.51999984	-0.56001470
25.55999984	-0.43354590
25.59999984	-0.30707720
25.63999984	-0.16254160
25.67999984	-0.05413984
25.71999984	0.07220680
25.75999984	0.18060850
25.79999984	0.28901030
25.83999984	0.37934510
25.87999984	0.46967990
25.91999984	0.56001470
25.95999984	0.63222150
25.99999984	0.70448930
26.03999984	0.77675710
26.07999984	0.86709190
26.11999984	0.93935970
26.15999984	1.02969500
26.19999984	1.10196200
26.23999984	1.17416900
26.27999984	1.22837000
26.31999984	1.30063800
26.35999984	1.33677200
26.39999984	1.33677200
26.43999984	1.33677200
26.47999984	1.31870500
26.51999984	1.30063800
26.55999984	1.22837000
26.59999984	1.15616300
26.63999984	1.06582800
26.67999984	0.95742670
26.71999984	0.84902500
26.75999984	0.72255620
26.79999984	0.57808160
26.83999984	0.46967990
26.87999984	0.32514420
26.91999984	0.19867550
26.95999984	0.09027375
26.99999984	-0.01800592
27.03999984	-0.12640770
27.07999984	-0.21674250
27.11999984	-0.28901030
27.15999983	-0.37934510
27.19999983	-0.45161290
27.23999983	-0.50581380
27.27999983	-0.57808160
27.31999983	-0.65028840
27.35999983	-0.72255620
27.39999983	-0.79482410
27.43999983	-0.86709190
27.47999983	-0.93935970
27.51999983	-1.01162800
27.55999983	-1.06582800
27.59999983	-1.13809600
27.63999983	-1.17416900
27.67999983	-1.22837000
27.71999983	-1.26450400
27.75999983	-1.28257100
27.79999983	-1.28257100
27.83999983	-1.26450400
27.87999983	-1.22837000
27.91999983	-1.17416900
27.95999983	-1.10196200
27.99999983	-1.02969500
28.03999983	-0.93935970
28.07999983	-0.81289100
28.11999983	-0.70448930
28.15999983	-0.57808160
28.19999983	-0.43354590
28.23999983	-0.32514420
28.27999983	-0.19867550
28.31999983	-0.07220680
28.35999983	0.03607288
28.39999983	0.14447460
28.43999983	0.27094330
28.47999983	0.34321110
28.51999983	0.43354590
28.55999983	0.52388070
28.59999983	0.61415450
28.63999983	0.68642230
28.67999983	0.75869010
28.71999983	0.84902500
28.75999983	0.92129280
28.79999982	1.01162800
28.83999982	1.08389500
28.87999982	1.15616300
28.91999982	1.22837000
28.95999982	1.30063800
28.99999982	1.31870500
29.03999982	1.35483900
29.07999982	1.35483900
29.11999982	1.33677200
29.15999982	1.30063800
29.19999982	1.24643700
29.23999982	1.17416900
29.27999982	1.08389500
29.31999982	0.97549360
29.35999982	0.86709190
29.39999982	0.74062320
29.43999982	0.61415450
29.47999982	0.48774680
29.51999982	0.36127810
29.55999982	0.23480940
29.59999982	0.10834070
29.63999982	0.00000000
29.67999982	-0.09027375
29.71999982	-0.19867550
29.75999982	-0.28901030
29.79999982	-0.36127810
29.83999982	-0.43354590
29.87999982	-0.50581380
29.91999982	-0.57808160
29.95999982	-0.63222150
29.99999982	-0.72255620
30.03999982	-0.77675710
30.07999982	-0.84902500
30.11999982	-0.92129280
30.15999982	-0.97549360
30.19999982	-1.02969500
30.23999982	-1.12002900
30.27999982	-1.15616300
30.31999982	-1.21030300
30.35999982	-1.24643700
30.39999982	-1.26450400
30.43999982	-1.28257100
30.47999981	-1.26450400
30.51999981	-1.22837000
30.55999981	-1.19223600
30.59999981	-1.12002900
30.63999981	-1.04776100
30.67999981	-0.95742670
30.71999981	-0.84902500
30.75999981	-0.72255620
30.79999981	-0.59608750
30.83999981	-0.48774680
30.87999981	-0.36127810
30.91999981	-0.21674250
30.95999981	-0.10834070
30.99999981	0.01800592
31.03999981	0.14447460
31.07999981	0.25287640
31.11999981	0.34321110
31.15999981	0.43354590
31.19999981	0.52388070
31.23999981	0.59608750
31.27999981	0.68642230
31.31999981	0.75869010
31.35999981	0.83095790
31.39999981	0.92129280
31.43999981	0.99356060
31.47999981	1.06582800
31.51999981	1.13809600
31.55999981	1.21030300
31.59999981	1.26450400
31.63999981	1.30063800
31.67999981	1.31870500
31.71999981	1.33677200
31.75999981	1.31870500
31.79999981	1.30063800
31.83999981	1.24643700
31.87999981	1.17416900
31.91999981	1.10196200
31.95999981	1.01162800
31.99999981	0.90322580
32.03999981	0.77675710
32.07999981	0.65028840
32.11999980	0.52388070
32.15999980	0.39741200
32.19999980	0.27094330
32.23999980	0.14447460
32.27999980	0.03607288
32.31999980	-0.07220680
32.35999980	-0.16254160
32.39999980	-0.25287640
32.43999980	-0.34321110
32.47999980	-0.43354590
32.51999980	-0.50581380
32.55999980	-0.57808160
32.59999980	-0.63222150
32.63999980	-0.70448930
32.67999980	-0.77675710
32.71999980	-0.84902500
32.75999980	-0.90322580
32.79999980	-0.97549360
32.83999980	-1.02969500
32.87999980	-1.10196200
32.91999980	-1.15616300
32.95999980	-1.19223600
