Time	Channel A
(us)	(V)

0.00000000	1.33677200
0.04000000	1.35483900
0.08000000	1.33677200
0.12000000	1.30063800
0.16000000	1.26450400
0.20000000	1.19223600
0.24000000	1.10196200
0.28000000	1.01162800
0.32000000	0.90322580
0.36000000	0.77675710
0.40000000	0.65028840
0.44000000	0.50581380
0.48000000	0.37934510
0.52000000	0.27094330
0.56000000	0.14447460
0.60000000	0.01800592
0.64000000	-0.07220680
0.68000000	-0.16254160
0.72000000	-0.27094330
0.76000000	-0.34321110
0.80000000	-0.43354590
0.83999999	-0.50581380
0.87999999	-0.56001470
0.91999999	-0.63222150
0.95999999	-0.70448930
0.99999999	-0.77675710
1.03999999	-0.83095790
1.07999999	-0.90322580
1.11999999	-0.97549360
1.15999999	-1.04776100
1.19999999	-1.10196200
1.23999999	-1.15616300
1.27999999	-1.22837000
1.31999999	-1.24643700
1.35999999	-1.26450400
1.39999999	-1.28257100
1.43999999	-1.28257100
1.47999999	-1.24643700
1.51999999	-1.21030300
1.55999999	-1.13809600
1.59999999	-1.06582800
1.63999999	-0.97549360
1.67999999	-0.86709190
1.71999999	-0.75869010
1.75999999	-0.63222150
1.79999999	-0.50581380
1.83999999	-0.37934510
1.87999999	-0.25287640
1.91999999	-0.12640770
1.95999999	0.00000000
1.99999999	0.10834070
2.03999999	0.21674250
2.07999999	0.32514420
2.11999999	0.41547900
2.15999999	0.48774680
2.19999999	0.57808160
2.23999999	0.65028840
2.27999999	0.72255620
2.31999999	0.81289100
2.35999999	0.90322580
2.39999999	0.97549360
2.43999999	1.06582800
2.47999998	1.13809600
2.51999998	1.19223600
2.55999998	1.26450400
2.59999998	1.30063800
2.63999998	1.33677200
2.67999998	1.35483900
2.71999998	1.33677200
2.75999998	1.30063800
2.79999998	1.26450400
2.83999998	1.21030300
2.87999998	1.12002900
2.91999998	1.02969500
2.95999998	0.92129280
2.99999998	0.79482410
3.03999998	0.66835530
3.07999998	0.54194770
3.11999998	0.43354590
3.15999998	0.28901030
3.19999998	0.18060850
3.23999998	0.05413984
3.27999998	-0.05413984
3.31999998	-0.14447460
3.35999998	-0.23480940
3.39999998	-0.32514420
3.43999998	-0.41547900
3.47999998	-0.48774680
3.51999998	-0.56001470
3.55999998	-0.63222150
3.59999998	-0.68642230
3.63999998	-0.75869010
3.67999998	-0.83095790
3.71999998	-0.88515880
3.75999998	-0.95742670
3.79999998	-1.02969500
3.83999998	-1.08389500
3.87999998	-1.15616300
3.91999998	-1.19223600
3.95999998	-1.22837000
3.99999998	-1.24643700
4.03999998	-1.26450400
4.07999998	-1.26450400
4.11999997	-1.24643700
4.15999997	-1.21030300
4.19999997	-1.15616300
4.23999997	-1.08389500
4.27999997	-0.99356060
4.31999997	-0.88515880
4.35999997	-0.79482410
4.39999997	-0.66835530
4.43999997	-0.54194770
4.47999997	-0.41547900
4.51999997	-0.28901030
4.55999997	-0.14447460
4.59999997	-0.03607288
4.63999997	0.07220680
4.67999997	0.19867550
4.71999997	0.28901030
4.75999997	0.39741200
4.79999997	0.48774680
4.83999997	0.56001470
4.87999997	0.65028840
4.91999997	0.72255620
4.95999997	0.79482410
4.99999997	0.88515880
5.03999997	0.95742670
5.07999997	1.04776100
5.11999997	1.12002900
5.15999997	1.19223600
5.19999997	1.22837000
5.23999997	1.30063800
5.27999997	1.31870500
5.31999997	1.33677200
5.35999997	1.33677200
5.39999997	1.31870500
5.43999997	1.26450400
5.47999997	1.21030300
5.51999997	1.13809600
5.55999997	1.04776100
5.59999997	0.93935970
5.63999997	0.83095790
5.67999997	0.70448930
5.71999997	0.57808160
5.75999996	0.45161290
5.79999996	0.32514420
5.83999996	0.19867550
5.87999996	0.07220680
5.91999996	-0.03607288
5.95999996	-0.12640770
5.99999996	-0.21674250
6.03999996	-0.30707720
6.07999996	-0.39741200
6.11999996	-0.46967990
6.15999996	-0.54194770
6.19999996	-0.61415450
6.23999996	-0.68642230
6.27999996	-0.74062320
6.31999996	-0.81289100
6.35999996	-0.88515880
6.39999996	-0.95742670
6.43999996	-1.01162800
6.47999996	-1.08389500
6.51999996	-1.13809600
6.55999996	-1.19223600
6.59999996	-1.22837000
6.63999996	-1.24643700
6.67999996	-1.26450400
6.71999996	-1.26450400
6.75999996	-1.24643700
6.79999996	-1.21030300
6.83999996	-1.17416900
6.87999996	-1.10196200
6.91999996	-1.01162800
6.95999996	-0.92129280
6.99999996	-0.79482410
7.03999996	-0.68642230
7.07999996	-0.57808160
7.11999996	-0.43354590
7.15999996	-0.30707720
7.19999996	-0.18060850
7.23999996	-0.05413984
7.27999996	0.05413984
7.31999996	0.16254160
7.35999996	0.28901030
7.39999996	0.37934510
7.43999995	0.46967990
7.47999995	0.56001470
7.51999995	0.63222150
7.55999995	0.70448930
7.59999995	0.77675710
7.63999995	0.86709190
7.67999995	0.93935970
7.71999995	1.01162800
7.75999995	1.08389500
7.79999995	1.17416900
7.83999995	1.22837000
7.87999995	1.28257100
7.91999995	1.31870500
7.95999995	1.33677200
7.99999995	1.35483900
8.03999995	1.31870500
8.07999995	1.28257100
8.11999995	1.22837000
8.15999995	1.15616300
8.19999995	1.06582800
8.23999995	0.95742670
8.27999995	0.84902500
8.31999995	0.74062320
8.35999995	0.59608750
8.39999995	0.46967990
8.43999995	0.34321110
8.47999995	0.21674250
8.51999995	0.10834070
8.55999995	0.00000000
8.59999995	-0.10834070
8.63999995	-0.21674250
8.67999995	-0.30707720
8.71999995	-0.37934510
8.75999995	-0.45161290
8.79999995	-0.52388070
8.83999995	-0.59608750
8.87999995	-0.66835530
8.91999995	-0.72255620
8.95999995	-0.79482410
8.99999995	-0.86709190
9.03999995	-0.93935970
9.07999994	-0.99356060
9.11999994	-1.06582800
9.15999994	-1.12002900
9.19999994	-1.17416900
9.23999994	-1.21030300
9.27999994	-1.24643700
9.31999994	-1.26450400
9.35999994	-1.26450400
9.39999994	-1.24643700
9.43999994	-1.22837000
9.47999994	-1.17416900
9.51999994	-1.12002900
9.55999994	-1.02969500
9.59999994	-0.93935970
9.63999994	-0.83095790
9.67999994	-0.72255620
9.71999994	-0.57808160
9.75999994	-0.45161290
9.79999994	-0.32514420
9.83999994	-0.21674250
9.87999994	-0.07220680
9.91999994	0.03607288
9.95999994	0.14447460
9.99999994	0.25287640
10.03999994	0.36127810
10.07999994	0.45161290
10.11999994	0.52388070
10.15999994	0.61415450
10.19999994	0.70448930
10.23999994	0.75869010
10.27999994	0.84902500
10.31999994	0.92129280
10.35999994	1.01162800
10.39999994	1.08389500
10.43999994	1.15616300
10.47999994	1.22837000
10.51999994	1.28257100
10.55999994	1.30063800
10.59999994	1.33677200
10.63999994	1.33677200
10.67999994	1.33677200
10.71999993	1.30063800
10.75999993	1.22837000
10.79999993	1.15616300
10.83999993	1.08389500
10.87999993	0.99356060
10.91999993	0.86709190
10.95999993	0.74062320
10.99999993	0.61415450
11.03999993	0.50581380
11.07999993	0.36127810
11.11999993	0.23480940
11.15999993	0.12640770
11.19999993	0.00000000
11.23999993	-0.09027375
11.27999993	-0.19867550
11.31999993	-0.28901030
11.35999993	-0.36127810
11.39999993	-0.43354590
11.43999993	-0.50581380
11.47999993	-0.57808160
11.51999993	-0.65028840
11.55999993	-0.72255620
11.59999993	-0.79482410
11.63999993	-0.86709190
11.67999993	-0.92129280
11.71999993	-0.99356060
11.75999993	-1.04776100
11.79999993	-1.12002900
11.83999993	-1.15616300
11.87999993	-1.21030300
11.91999993	-1.24643700
11.95999993	-1.26450400
11.99999993	-1.26450400
12.03999993	-1.26450400
12.07999993	-1.22837000
12.11999993	-1.19223600
12.15999993	-1.13809600
12.19999993	-1.04776100
12.23999993	-0.95742670
12.27999993	-0.84902500
12.31999993	-0.72255620
12.35999992	-0.61415450
12.39999992	-0.46967990
12.43999992	-0.36127810
12.47999992	-0.23480940
12.51999992	-0.10834070
12.55999992	0.00000000
12.59999992	0.12640770
12.63999992	0.21674250
12.67999992	0.32514420
12.71999992	0.43354590
12.75999992	0.50581380
12.79999992	0.57808160
12.83999992	0.66835530
12.87999992	0.75869010
12.91999992	0.83095790
12.95999992	0.92129280
12.99999992	0.99356060
13.03999992	1.08389500
13.07999992	1.15616300
13.11999992	1.22837000
13.15999992	1.28257100
13.19999992	1.31870500
13.23999992	1.33677200
13.27999992	1.35483900
13.31999992	1.33677200
13.35999992	1.30063800
13.39999992	1.24643700
13.43999992	1.17416900
13.47999992	1.10196200
13.51999992	0.99356060
13.55999992	0.88515880
13.59999992	0.75869010
13.63999992	0.63222150
13.67999992	0.50581380
13.71999992	0.37934510
13.75999992	0.27094330
13.79999992	0.14447460
13.83999992	0.03607288
13.87999992	-0.07220680
13.91999992	-0.16254160
13.95999992	-0.25287640
13.99999991	-0.34321110
14.03999991	-0.41547900
14.07999991	-0.48774680
14.11999991	-0.57808160
14.15999991	-0.63222150
14.19999991	-0.70448930
14.23999991	-0.77675710
14.27999991	-0.84902500
14.31999991	-0.90322580
14.35999991	-0.99356060
14.39999991	-1.04776100
14.43999991	-1.10196200
14.47999991	-1.17416900
14.51999991	-1.22837000
14.55999991	-1.24643700
14.59999991	-1.26450400
14.63999991	-1.28257100
14.67999991	-1.26450400
14.71999991	-1.24643700
14.75999991	-1.19223600
14.79999991	-1.13809600
14.83999991	-1.04776100
14.87999991	-0.97549360
14.91999991	-0.86709190
14.95999991	-0.75869010
14.99999991	-0.63222150
15.03999991	-0.50581380
15.07999991	-0.37934510
15.11999991	-0.25287640
15.15999991	-0.12640770
15.19999991	0.00000000
15.23999991	0.10834070
15.27999991	0.21674250
15.31999991	0.30707720
15.35999991	0.41547900
15.39999991	0.48774680
15.43999991	0.57808160
15.47999991	0.65028840
15.51999991	0.72255620
15.55999991	0.81289100
15.59999991	0.90322580
15.63999990	0.99356060
15.67999990	1.06582800
15.71999990	1.13809600
15.75999990	1.21030300
15.79999990	1.28257100
15.83999990	1.31870500
15.87999990	1.35483900
15.91999990	1.35483900
15.95999990	1.33677200
15.99999990	1.31870500
16.03999990	1.28257100
16.07999990	1.19223600
16.11999990	1.12002900
16.15999990	1.01162800
16.19999990	0.90322580
16.23999990	0.79482410
16.27999990	0.66835530
16.31999990	0.54194770
16.35999990	0.41547900
16.39999990	0.28901030
16.43999990	0.16254160
16.47999990	0.05413984
16.51999990	-0.05413984
16.55999990	-0.14447460
16.59999990	-0.23480940
16.63999990	-0.32514420
16.67999990	-0.41547900
16.71999990	-0.46967990
16.75999990	-0.56001470
16.79999990	-0.61415450
16.83999990	-0.68642230
16.87999990	-0.75869010
16.91999990	-0.83095790
16.95999990	-0.90322580
16.99999990	-0.95742670
17.03999990	-1.02969500
17.07999990	-1.10196200
17.11999990	-1.15616300
17.15999990	-1.19223600
17.19999990	-1.22837000
17.23999990	-1.26450400
17.27999989	-1.28257100
17.31999989	-1.28257100
17.35999989	-1.24643700
17.39999989	-1.21030300
17.43999989	-1.15616300
17.47999989	-1.08389500
17.51999989	-0.99356060
17.55999989	-0.90322580
17.59999989	-0.77675710
17.63999989	-0.65028840
17.67999989	-0.52388070
17.71999989	-0.39741200
17.75999989	-0.27094330
17.79999989	-0.14447460
17.83999989	-0.01800592
17.87999989	0.09027375
17.91999989	0.19867550
17.95999989	0.28901030
17.99999989	0.39741200
18.03999989	0.48774680
18.07999989	0.56001470
18.11999989	0.65028840
18.15999989	0.72255620
18.19999989	0.79482410
18.23999989	0.86709190
18.27999989	0.95742670
18.31999989	1.02969500
18.35999989	1.12002900
18.39999989	1.19223600
18.43999989	1.22837000
18.47999989	1.30063800
18.51999989	1.31870500
18.55999989	1.33677200
18.59999989	1.33677200
18.63999989	1.31870500
18.67999989	1.28257100
18.71999989	1.22837000
18.75999989	1.13809600
18.79999989	1.06582800
18.83999989	0.93935970
18.87999989	0.83095790
18.91999989	0.70448930
18.95999988	0.57808160
18.99999988	0.45161290
19.03999988	0.32514420
19.07999988	0.19867550
19.11999988	0.07220680
19.15999988	-0.03607288
19.19999988	-0.14447460
19.23999988	-0.23480940
19.27999988	-0.30707720
19.31999988	-0.39741200
19.35999988	-0.46967990
19.39999988	-0.54194770
19.43999988	-0.61415450
19.47999988	-0.68642230
19.51999988	-0.74062320
19.55999988	-0.81289100
19.59999988	-0.86709190
19.63999988	-0.93935970
19.67999988	-1.01162800
19.71999988	-1.08389500
19.75999988	-1.13809600
19.79999988	-1.17416900
19.83999988	-1.22837000
19.87999988	-1.24643700
19.91999988	-1.28257100
19.95999988	-1.26450400
19.99999988	-1.24643700
20.03999988	-1.22837000
20.07999988	-1.17416900
20.11999988	-1.10196200
20.15999988	-1.01162800
20.19999988	-0.92129280
20.23999988	-0.81289100
20.27999988	-0.68642230
20.31999988	-0.57808160
20.35999988	-0.43354590
20.39999988	-0.30707720
20.43999988	-0.18060850
20.47999988	-0.05413984
20.51999988	0.05413984
20.55999988	0.18060850
20.59999987	0.27094330
20.63999987	0.36127810
20.67999987	0.46967990
20.71999987	0.56001470
20.75999987	0.63222150
20.79999987	0.70448930
20.83999987	0.79482410
20.87999987	0.86709190
20.91999987	0.93935970
20.95999987	1.02969500
20.99999987	1.10196200
21.03999987	1.17416900
21.07999987	1.22837000
21.11999987	1.28257100
21.15999987	1.31870500
21.19999987	1.35483900
21.23999987	1.33677200
21.27999987	1.31870500
21.31999987	1.28257100
21.35999987	1.22837000
21.39999987	1.15616300
21.43999987	1.06582800
21.47999987	0.95742670
21.51999987	0.84902500
21.55999987	0.72255620
21.59999987	0.59608750
21.63999987	0.48774680
21.67999987	0.34321110
21.71999987	0.21674250
21.75999987	0.10834070
21.79999987	0.00000000
21.83999987	-0.10834070
21.87999987	-0.21674250
21.91999987	-0.28901030
21.95999987	-0.37934510
21.99999987	-0.45161290
22.03999987	-0.52388070
22.07999987	-0.59608750
22.11999987	-0.66835530
22.15999987	-0.72255620
22.19999987	-0.79482410
22.23999986	-0.86709190
22.27999986	-0.93935970
22.31999986	-1.01162800
22.35999986	-1.08389500
22.39999986	-1.12002900
22.43999986	-1.17416900
22.47999986	-1.22837000
22.51999986	-1.24643700
22.55999986	-1.26450400
22.59999986	-1.26450400
22.63999986	-1.24643700
22.67999986	-1.22837000
22.71999986	-1.17416900
22.75999986	-1.12002900
22.79999986	-1.02969500
22.83999986	-0.93935970
22.87999986	-0.83095790
22.91999986	-0.72255620
22.95999986	-0.59608750
22.99999986	-0.45161290
23.03999986	-0.34321110
23.07999986	-0.19867550
23.11999986	-0.07220680
23.15999986	0.03607288
23.19999986	0.14447460
23.23999986	0.25287640
23.27999986	0.36127810
23.31999986	0.43354590
23.35999986	0.54194770
23.39999986	0.61415450
23.43999986	0.70448930
23.47999986	0.77675710
23.51999986	0.84902500
23.55999986	0.93935970
23.59999986	1.01162800
23.63999986	1.08389500
23.67999986	1.15616300
23.71999986	1.22837000
23.75999986	1.28257100
23.79999986	1.31870500
23.83999986	1.33677200
23.87999985	1.35483900
23.91999985	1.33677200
23.95999985	1.30063800
23.99999985	1.24643700
24.03999985	1.15616300
24.07999985	1.08389500
24.11999985	0.97549360
24.15999985	0.86709190
24.19999985	0.77675710
24.23999985	0.63222150
24.27999985	0.50581380
24.31999985	0.36127810
24.35999985	0.23480940
24.39999985	0.12640770
24.43999985	0.01800592
24.47999985	-0.09027375
24.51999985	-0.19867550
24.55999985	-0.27094330
24.59999985	-0.36127810
24.63999985	-0.43354590
24.67999985	-0.50581380
24.71999985	-0.57808160
24.75999985	-0.65028840
24.79999985	-0.72255620
24.83999985	-0.79482410
24.87999985	-0.86709190
24.91999985	-0.92129280
24.95999985	-0.99356060
24.99999985	-1.04776100
25.03999985	-1.12002900
25.07999985	-1.17416900
25.11999985	-1.21030300
25.15999985	-1.24643700
25.19999985	-1.26450400
25.23999985	-1.26450400
25.27999985	-1.26450400
25.31999985	-1.22837000
25.35999985	-1.19223600
25.39999985	-1.13809600
25.43999985	-1.04776100
25.47999985	-0.95742670
25.51999984	-0.84902500
25.55999984	-0.74062320
25.59999984	-0.61415450
25.63999984	-0.50581380
25.67999984	-0.36127810
25.71999984	-0.21674250
25.75999984	-0.10834070
25.79999984	0.00000000
25.83999984	0.12640770
25.87999984	0.21674250
25.91999984	0.32514420
25.95999984	0.43354590
25.99999984	0.50581380
26.03999984	0.59608750
26.07999984	0.66835530
26.11999984	0.75869010
26.15999984	0.83095790
26.19999984	0.92129280
26.23999984	0.99356060
26.27999984	1.06582800
26.31999984	1.15616300
26.35999984	1.21030300
26.39999984	1.26450400
26.43999984	1.30063800
26.47999984	1.33677200
26.51999984	1.33677200
26.55999984	1.33677200
26.59999984	1.30063800
26.63999984	1.26450400
26.67999984	1.19223600
26.71999984	1.10196200
26.75999984	1.01162800
26.79999984	0.90322580
26.83999984	0.77675710
26.87999984	0.65028840
26.91999984	0.52388070
26.95999984	0.41547900
26.99999984	0.28901030
27.03999984	0.14447460
27.07999984	0.03607288
27.11999984	-0.07220680
27.15999983	-0.16254160
27.19999983	-0.27094330
27.23999983	-0.34321110
27.27999983	-0.43354590
27.31999983	-0.50581380
27.35999983	-0.57808160
27.39999983	-0.65028840
27.43999983	-0.72255620
27.47999983	-0.77675710
27.51999983	-0.84902500
27.55999983	-0.90322580
27.59999983	-0.97549360
27.63999983	-1.02969500
27.67999983	-1.10196200
27.71999983	-1.15616300
27.75999983	-1.19223600
27.79999983	-1.24643700
27.83999983	-1.26450400
27.87999983	-1.26450400
27.91999983	-1.26450400
27.95999983	-1.22837000
27.99999983	-1.21030300
28.03999983	-1.13809600
28.07999983	-1.06582800
28.11999983	-0.97549360
28.15999983	-0.88515880
28.19999983	-0.75869010
28.23999983	-0.65028840
28.27999983	-0.52388070
28.31999983	-0.39741200
28.35999983	-0.27094330
28.39999983	-0.14447460
28.43999983	-0.01800592
28.47999983	0.10834070
28.51999983	0.21674250
28.55999983	0.32514420
28.59999983	0.41547900
28.63999983	0.50581380
28.67999983	0.57808160
28.71999983	0.65028840
28.75999983	0.74062320
28.79999982	0.83095790
28.83999982	0.88515880
28.87999982	0.97549360
28.91999982	1.06582800
28.95999982	1.13809600
28.99999982	1.19223600
29.03999982	1.24643700
29.07999982	1.30063800
29.11999982	1.31870500
29.15999982	1.33677200
29.19999982	1.31870500
29.23999982	1.30063800
29.27999982	1.26450400
29.31999982	1.19223600
29.35999982	1.12002900
29.39999982	1.02969500
29.43999982	0.92129280
29.47999982	0.79482410
29.51999982	0.70448930
29.55999982	0.56001470
29.59999982	0.43354590
29.63999982	0.30707720
29.67999982	0.18060850
29.71999982	0.07220680
29.75999982	-0.03607288
29.79999982	-0.14447460
29.83999982	-0.23480940
29.87999982	-0.32514420
29.91999982	-0.39741200
29.95999982	-0.48774680
29.99999982	-0.56001470
30.03999982	-0.63222150
30.07999982	-0.68642230
30.11999982	-0.75869010
30.15999982	-0.83095790
30.19999982	-0.90322580
30.23999982	-0.97549360
30.27999982	-1.02969500
30.31999982	-1.10196200
30.35999982	-1.15616300
30.39999982	-1.19223600
30.43999982	-1.22837000
30.47999981	-1.26450400
30.51999981	-1.26450400
30.55999981	-1.26450400
30.59999981	-1.22837000
30.63999981	-1.21030300
30.67999981	-1.15616300
30.71999981	-1.08389500
30.75999981	-0.99356060
30.79999981	-0.90322580
30.83999981	-0.77675710
30.87999981	-0.66835530
30.91999981	-0.56001470
30.95999981	-0.41547900
30.99999981	-0.28901030
31.03999981	-0.16254160
31.07999981	-0.05413984
31.11999981	0.07220680
31.15999981	0.18060850
31.19999981	0.28901030
31.23999981	0.37934510
31.27999981	0.46967990
31.31999981	0.56001470
31.35999981	0.63222150
31.39999981	0.72255620
31.43999981	0.79482410
31.47999981	0.88515880
31.51999981	0.97549360
31.55999981	1.04776100
31.59999981	1.12002900
31.63999981	1.19223600
31.67999981	1.24643700
31.71999981	1.30063800
31.75999981	1.33677200
31.79999981	1.35483900
31.83999981	1.35483900
31.87999981	1.31870500
31.91999981	1.28257100
31.95999981	1.22837000
31.99999981	1.13809600
32.03999981	1.04776100
32.07999981	0.93935970
32.11999980	0.83095790
32.15999980	0.72255620
32.19999980	0.57808160
32.23999980	0.45161290
32.27999980	0.32514420
32.31999980	0.19867550
32.35999980	0.07220680
32.39999980	-0.01800592
32.43999980	-0.10834070
32.47999980	-0.21674250
32.51999980	-0.30707720
32.55999980	-0.37934510
32.59999980	-0.46967990
32.63999980	-0.54194770
32.67999980	-0.59608750
32.71999980	-0.66835530
32.75999980	-0.74062320
32.79999980	-0.81289100
32.83999980	-0.88515880
32.87999980	-0.95742670
32.91999980	-1.01162800
32.95999980	-1.08389500
