Time	Channel A
(us)	(V)

0.00000000	0.18060850
0.04000000	0.28901030
0.08000000	0.36127810
0.12000000	0.46967990
0.16000000	0.54194770
0.20000000	0.61415450
0.24000000	0.70448930
0.28000000	0.77675710
0.32000000	0.86709190
0.36000000	0.93935970
0.40000000	1.01162800
0.44000000	1.10196200
0.48000000	1.15616300
0.52000000	1.22837000
0.56000000	1.28257100
0.60000000	1.31870500
0.64000000	1.33677200
0.68000000	1.33677200
0.72000000	1.31870500
0.76000000	1.28257100
0.80000000	1.22837000
0.83999999	1.15616300
0.87999999	1.06582800
0.91999999	0.95742670
0.95999999	0.84902500
0.99999999	0.74062320
1.03999999	0.59608750
1.07999999	0.48774680
1.11999999	0.34321110
1.15999999	0.21674250
1.19999999	0.10834070
1.23999999	0.00000000
1.27999999	-0.10834070
1.31999999	-0.21674250
1.35999999	-0.28901030
1.39999999	-0.37934510
1.43999999	-0.45161290
1.47999999	-0.52388070
1.51999999	-0.59608750
1.55999999	-0.66835530
1.59999999	-0.72255620
1.63999999	-0.79482410
1.67999999	-0.86709190
1.71999999	-0.93935970
1.75999999	-1.01162800
1.79999999	-1.06582800
1.83999999	-1.12002900
1.87999999	-1.17416900
1.91999999	-1.22837000
1.95999999	-1.24643700
1.99999999	-1.26450400
2.03999999	-1.26450400
2.07999999	-1.26450400
2.11999999	-1.22837000
2.15999999	-1.19223600
2.19999999	-1.10196200
2.23999999	-1.02969500
2.27999999	-0.93935970
2.31999999	-0.83095790
2.35999999	-0.72255620
2.39999999	-0.59608750
2.43999999	-0.46967990
2.47999998	-0.32514420
2.51999998	-0.21674250
2.55999998	-0.09027375
2.59999998	0.03607288
2.63999998	0.14447460
2.67999998	0.23480940
2.71999998	0.36127810
2.75999998	0.43354590
2.79999998	0.52388070
2.83999998	0.59608750
2.87999998	0.66835530
2.91999998	0.75869010
2.95999998	0.83095790
2.99999998	0.92129280
3.03999998	1.01162800
3.07999998	1.08389500
3.11999998	1.15616300
3.15999998	1.21030300
3.19999998	1.26450400
3.23999998	1.31870500
3.27999998	1.33677200
3.31999998	1.35483900
3.35999998	1.31870500
3.39999998	1.30063800
3.43999998	1.24643700
3.47999998	1.17416900
3.51999998	1.08389500
3.55999998	0.99356060
3.59999998	0.86709190
3.63999998	0.75869010
3.67999998	0.63222150
3.71999998	0.50581380
3.75999998	0.37934510
3.79999998	0.23480940
3.83999998	0.12640770
3.87999998	0.00000000
3.91999998	-0.09027375
3.95999998	-0.18060850
3.99999998	-0.27094330
4.03999998	-0.36127810
4.07999998	-0.41547900
4.11999997	-0.50581380
4.15999997	-0.57808160
4.19999997	-0.63222150
4.23999997	-0.70448930
4.27999997	-0.77675710
4.31999997	-0.84902500
4.35999997	-0.92129280
4.39999997	-0.97549360
4.43999997	-1.04776100
4.47999997	-1.12002900
4.51999997	-1.17416900
4.55999997	-1.22837000
4.59999997	-1.24643700
4.63999997	-1.26450400
4.67999997	-1.28257100
4.71999997	-1.26450400
4.75999997	-1.22837000
4.79999997	-1.19223600
4.83999997	-1.13809600
4.87999997	-1.04776100
4.91999997	-0.95742670
4.95999997	-0.86709190
4.99999997	-0.72255620
5.03999997	-0.61415450
5.07999997	-0.48774680
5.11999997	-0.36127810
5.15999997	-0.23480940
5.19999997	-0.10834070
5.23999997	0.01800592
5.27999997	0.12640770
5.31999997	0.21674250
5.35999997	0.32514420
5.39999997	0.41547900
5.43999997	0.50581380
5.47999997	0.57808160
5.51999997	0.65028840
5.55999997	0.74062320
5.59999997	0.81289100
5.63999997	0.90322580
5.67999997	0.99356060
5.71999997	1.06582800
5.75999996	1.13809600
5.79999996	1.21030300
5.83999996	1.26450400
5.87999996	1.30063800
5.91999996	1.33677200
5.95999996	1.35483900
5.99999996	1.33677200
6.03999996	1.30063800
6.07999996	1.28257100
6.11999996	1.21030300
6.15999996	1.12002900
6.19999996	1.01162800
6.23999996	0.90322580
6.27999996	0.79482410
6.31999996	0.65028840
6.35999996	0.54194770
6.39999996	0.41547900
6.43999996	0.27094330
6.47999996	0.14447460
6.51999996	0.03607288
6.55999996	-0.07220680
6.59999996	-0.16254160
6.63999996	-0.25287640
6.67999996	-0.34321110
6.71999996	-0.41547900
6.75999996	-0.48774680
6.79999996	-0.56001470
6.83999996	-0.61415450
6.87999996	-0.68642230
6.91999996	-0.75869010
6.95999996	-0.83095790
6.99999996	-0.90322580
7.03999996	-0.95742670
7.07999996	-1.02969500
7.11999996	-1.10196200
7.15999996	-1.15616300
7.19999996	-1.19223600
7.23999996	-1.22837000
7.27999996	-1.26450400
7.31999996	-1.28257100
7.35999996	-1.26450400
7.39999996	-1.24643700
7.43999995	-1.21030300
7.47999995	-1.15616300
7.51999995	-1.08389500
7.55999995	-0.97549360
7.59999995	-0.86709190
7.63999995	-0.77675710
7.67999995	-0.65028840
7.71999995	-0.50581380
7.75999995	-0.39741200
7.79999995	-0.28901030
7.83999995	-0.14447460
7.87999995	-0.01800592
7.91999995	0.10834070
7.95999995	0.21674250
7.99999995	0.30707720
8.03999995	0.41547900
8.07999995	0.50581380
8.11999995	0.57808160
8.15999995	0.65028840
8.19999995	0.74062320
8.23999995	0.79482410
8.27999995	0.88515880
8.31999995	0.95742670
8.35999995	1.04776100
8.39999995	1.12002900
8.43999995	1.19223600
8.47999995	1.24643700
8.51999995	1.30063800
8.55999995	1.31870500
8.59999995	1.33677200
8.63999995	1.33677200
8.67999995	1.31870500
8.71999995	1.26450400
8.75999995	1.21030300
8.79999995	1.13809600
8.83999995	1.04776100
8.87999995	0.93935970
8.91999995	0.81289100
8.95999995	0.70448930
8.99999995	0.57808160
9.03999995	0.45161290
9.07999994	0.30707720
9.11999994	0.18060850
9.15999994	0.07220680
9.19999994	-0.03607288
9.23999994	-0.14447460
9.27999994	-0.23480940
9.31999994	-0.32514420
9.35999994	-0.41547900
9.39999994	-0.46967990
9.43999994	-0.54194770
9.47999994	-0.61415450
9.51999994	-0.68642230
9.55999994	-0.74062320
9.59999994	-0.81289100
9.63999994	-0.88515880
9.67999994	-0.95742670
9.71999994	-1.01162800
9.75999994	-1.08389500
9.79999994	-1.13809600
9.83999994	-1.19223600
9.87999994	-1.22837000
9.91999994	-1.24643700
9.95999994	-1.26450400
9.99999994	-1.26450400
10.03999994	-1.24643700
10.07999994	-1.21030300
10.11999994	-1.15616300
10.15999994	-1.08389500
10.19999994	-1.01162800
10.23999994	-0.90322580
10.27999994	-0.79482410
10.31999994	-0.66835530
10.35999994	-0.56001470
10.39999994	-0.43354590
10.43999994	-0.30707720
10.47999994	-0.16254160
10.51999994	-0.05413984
10.55999994	0.05413984
10.59999994	0.18060850
10.63999994	0.28901030
10.67999994	0.37934510
10.71999993	0.46967990
10.75999993	0.56001470
10.79999993	0.63222150
10.83999993	0.72255620
10.87999993	0.79482410
10.91999993	0.86709190
10.95999993	0.95742670
10.99999993	1.02969500
11.03999993	1.12002900
11.07999993	1.17416900
11.11999993	1.24643700
11.15999993	1.28257100
11.19999993	1.33677200
11.23999993	1.35483900
11.27999993	1.33677200
11.31999993	1.31870500
11.35999993	1.28257100
11.39999993	1.22837000
11.43999993	1.15616300
11.47999993	1.06582800
11.51999993	0.95742670
11.55999993	0.83095790
11.59999993	0.72255620
11.63999993	0.59608750
11.67999993	0.46967990
11.71999993	0.34321110
11.75999993	0.21674250
11.79999993	0.09027375
11.83999993	-0.01800592
11.87999993	-0.10834070
11.91999993	-0.21674250
11.95999993	-0.30707720
11.99999993	-0.37934510
12.03999993	-0.45161290
12.07999993	-0.52388070
12.11999993	-0.59608750
12.15999993	-0.66835530
12.19999993	-0.74062320
12.23999993	-0.81289100
12.27999993	-0.86709190
12.31999993	-0.93935970
12.35999992	-1.01162800
12.39999992	-1.08389500
12.43999992	-1.13809600
12.47999992	-1.17416900
12.51999992	-1.22837000
12.55999992	-1.26450400
12.59999992	-1.26450400
12.63999992	-1.26450400
12.67999992	-1.26450400
12.71999992	-1.24643700
12.75999992	-1.17416900
12.79999992	-1.12002900
12.83999992	-1.02969500
12.87999992	-0.93935970
12.91999992	-0.83095790
12.95999992	-0.70448930
12.99999992	-0.57808160
13.03999992	-0.45161290
13.07999992	-0.32514420
13.11999992	-0.19867550
13.15999992	-0.07220680
13.19999992	0.05413984
13.23999992	0.16254160
13.27999992	0.27094330
13.31999992	0.36127810
13.35999992	0.45161290
13.39999992	0.54194770
13.43999992	0.61415450
13.47999992	0.68642230
13.51999992	0.75869010
13.55999992	0.84902500
13.59999992	0.93935970
13.63999992	1.01162800
13.67999992	1.08389500
13.71999992	1.15616300
13.75999992	1.22837000
13.79999992	1.28257100
13.83999992	1.31870500
13.87999992	1.33677200
13.91999992	1.35483900
13.95999992	1.33677200
13.99999991	1.30063800
14.03999991	1.24643700
14.07999991	1.17416900
14.11999991	1.08389500
14.15999991	0.99356060
14.19999991	0.86709190
14.23999991	0.75869010
14.27999991	0.61415450
14.31999991	0.48774680
14.35999991	0.36127810
14.39999991	0.23480940
14.43999991	0.12640770
14.47999991	0.00000000
14.51999991	-0.09027375
14.55999991	-0.19867550
14.59999991	-0.28901030
14.63999991	-0.36127810
14.67999991	-0.43354590
14.71999991	-0.50581380
14.75999991	-0.57808160
14.79999991	-0.65028840
14.83999991	-0.72255620
14.87999991	-0.79482410
14.91999991	-0.84902500
14.95999991	-0.92129280
14.99999991	-0.99356060
15.03999991	-1.04776100
15.07999991	-1.12002900
15.11999991	-1.17416900
15.15999991	-1.21030300
15.19999991	-1.24643700
15.23999991	-1.26450400
15.27999991	-1.28257100
15.31999991	-1.26450400
15.35999991	-1.24643700
15.39999991	-1.19223600
15.43999991	-1.13809600
15.47999991	-1.04776100
15.51999991	-0.95742670
15.55999991	-0.84902500
15.59999991	-0.72255620
15.63999990	-0.59608750
15.67999990	-0.46967990
15.71999990	-0.36127810
15.75999990	-0.21674250
15.79999990	-0.09027375
15.83999990	0.01800592
15.87999990	0.14447460
15.91999990	0.25287640
15.95999990	0.34321110
15.99999990	0.43354590
16.03999990	0.50581380
16.07999990	0.59608750
16.11999990	0.66835530
16.15999990	0.74062320
16.19999990	0.83095790
16.23999990	0.90322580
16.27999990	0.99356060
16.31999990	1.08389500
16.35999990	1.15616300
16.39999990	1.21030300
16.43999990	1.26450400
16.47999990	1.31870500
16.51999990	1.33677200
16.55999990	1.35483900
16.59999990	1.33677200
16.63999990	1.31870500
16.67999990	1.26450400
16.71999990	1.19223600
16.75999990	1.10196200
16.79999990	1.01162800
16.83999990	0.90322580
16.87999990	0.79482410
16.91999990	0.65028840
16.95999990	0.52388070
16.99999990	0.39741200
17.03999990	0.27094330
17.07999990	0.14447460
17.11999990	0.03607288
17.15999990	-0.07220680
17.19999990	-0.16254160
17.23999990	-0.27094330
17.27999989	-0.34321110
17.31999989	-0.43354590
17.35999989	-0.50581380
17.39999989	-0.57808160
17.43999989	-0.63222150
17.47999989	-0.70448930
17.51999989	-0.77675710
17.55999989	-0.84902500
17.59999989	-0.90322580
17.63999989	-0.99356060
17.67999989	-1.04776100
17.71999989	-1.10196200
17.75999989	-1.17416900
17.79999989	-1.21030300
17.83999989	-1.24643700
17.87999989	-1.26450400
17.91999989	-1.28257100
17.95999989	-1.26450400
17.99999989	-1.24643700
18.03999989	-1.21030300
18.07999989	-1.13809600
18.11999989	-1.08389500
18.15999989	-0.97549360
18.19999989	-0.86709190
18.23999989	-0.75869010
18.27999989	-0.65028840
18.31999989	-0.52388070
18.35999989	-0.37934510
18.39999989	-0.25287640
18.43999989	-0.14447460
18.47999989	-0.01800592
18.51999989	0.10834070
18.55999989	0.21674250
18.59999989	0.30707720
18.63999989	0.41547900
18.67999989	0.50581380
18.71999989	0.57808160
18.75999989	0.65028840
18.79999989	0.74062320
18.83999989	0.81289100
18.87999989	0.90322580
18.91999989	0.97549360
18.95999988	1.06582800
18.99999988	1.13809600
19.03999988	1.19223600
19.07999988	1.26450400
19.11999988	1.30063800
19.15999988	1.33677200
19.19999988	1.33677200
19.23999988	1.33677200
19.27999988	1.31870500
19.31999988	1.28257100
19.35999988	1.21030300
19.39999988	1.13809600
19.43999988	1.02969500
19.47999988	0.92129280
19.51999988	0.81289100
19.55999988	0.68642230
19.59999988	0.56001470
19.63999988	0.43354590
19.67999988	0.28901030
19.71999988	0.18060850
19.75999988	0.05413984
19.79999988	-0.05413984
19.83999988	-0.14447460
19.87999988	-0.25287640
19.91999988	-0.32514420
19.95999988	-0.41547900
19.99999988	-0.46967990
20.03999988	-0.54194770
20.07999988	-0.61415450
20.11999988	-0.68642230
20.15999988	-0.75869010
20.19999988	-0.83095790
20.23999988	-0.90322580
20.27999988	-0.95742670
20.31999988	-1.02969500
20.35999988	-1.10196200
20.39999988	-1.15616300
20.43999988	-1.19223600
20.47999988	-1.24643700
20.51999988	-1.26450400
20.55999988	-1.26450400
20.59999987	-1.26450400
20.63999987	-1.24643700
20.67999987	-1.21030300
20.71999987	-1.15616300
20.75999987	-1.08389500
20.79999987	-0.99356060
20.83999987	-0.90322580
20.87999987	-0.79482410
20.91999987	-0.66835530
20.95999987	-0.54194770
20.99999987	-0.41547900
21.03999987	-0.28901030
21.07999987	-0.16254160
21.11999987	-0.03607288
21.15999987	0.07220680
21.19999987	0.19867550
21.23999987	0.28901030
21.27999987	0.37934510
21.31999987	0.46967990
21.35999987	0.56001470
21.39999987	0.63222150
21.43999987	0.72255620
21.47999987	0.79482410
21.51999987	0.86709190
21.55999987	0.95742670
21.59999987	1.02969500
21.63999987	1.12002900
21.67999987	1.19223600
21.71999987	1.22837000
21.75999987	1.30063800
21.79999987	1.31870500
21.83999987	1.33677200
21.87999987	1.35483900
21.91999987	1.31870500
21.95999987	1.28257100
21.99999987	1.21030300
22.03999987	1.15616300
22.07999987	1.04776100
22.11999987	0.93935970
22.15999987	0.84902500
22.19999987	0.72255620
22.23999986	0.59608750
22.27999986	0.46967990
22.31999986	0.34321110
22.35999986	0.21674250
22.39999986	0.09027375
22.43999986	-0.01800592
22.47999986	-0.10834070
22.51999986	-0.21674250
22.55999986	-0.30707720
22.59999986	-0.39741200
22.63999986	-0.45161290
22.67999986	-0.52388070
22.71999986	-0.59608750
22.75999986	-0.66835530
22.79999986	-0.74062320
22.83999986	-0.81289100
22.87999986	-0.86709190
22.91999986	-0.93935970
22.95999986	-1.01162800
22.99999986	-1.08389500
23.03999986	-1.13809600
23.07999986	-1.17416900
23.11999986	-1.22837000
23.15999986	-1.24643700
23.19999986	-1.26450400
23.23999986	-1.26450400
23.27999986	-1.24643700
23.31999986	-1.22837000
23.35999986	-1.17416900
23.39999986	-1.10196200
23.43999986	-1.01162800
23.47999986	-0.92129280
23.51999986	-0.83095790
23.55999986	-0.70448930
23.59999986	-0.57808160
23.63999986	-0.45161290
23.67999986	-0.32514420
23.71999986	-0.19867550
23.75999986	-0.07220680
23.79999986	0.05413984
23.83999986	0.16254160
23.87999985	0.27094330
23.91999985	0.36127810
23.95999985	0.45161290
23.99999985	0.54194770
24.03999985	0.61415450
24.07999985	0.70448930
24.11999985	0.77675710
24.15999985	0.84902500
24.19999985	0.93935970
24.23999985	1.01162800
24.27999985	1.10196200
24.31999985	1.15616300
24.35999985	1.22837000
24.39999985	1.28257100
24.43999985	1.31870500
24.47999985	1.33677200
24.51999985	1.33677200
24.55999985	1.31870500
24.59999985	1.30063800
24.63999985	1.22837000
24.67999985	1.17416900
24.71999985	1.08389500
24.75999985	0.99356060
24.79999985	0.86709190
24.83999985	0.74062320
24.87999985	0.61415450
24.91999985	0.50581380
24.95999985	0.36127810
24.99999985	0.23480940
25.03999985	0.12640770
25.07999985	0.00000000
25.11999985	-0.09027375
25.15999985	-0.19867550
25.19999985	-0.28901030
25.23999985	-0.36127810
25.27999985	-0.45161290
25.31999985	-0.52388070
25.35999985	-0.57808160
25.39999985	-0.65028840
25.43999985	-0.72255620
25.47999985	-0.79482410
25.51999984	-0.86709190
25.55999984	-0.92129280
25.59999984	-0.99356060
25.63999984	-1.06582800
25.67999984	-1.12002900
25.71999984	-1.17416900
25.75999984	-1.22837000
25.79999984	-1.24643700
25.83999984	-1.26450400
25.87999984	-1.26450400
25.91999984	-1.26450400
25.95999984	-1.22837000
25.99999984	-1.19223600
26.03999984	-1.12002900
26.07999984	-1.02969500
26.11999984	-0.95742670
26.15999984	-0.84902500
26.19999984	-0.72255620
26.23999984	-0.61415450
26.27999984	-0.46967990
26.31999984	-0.36127810
26.35999984	-0.21674250
26.39999984	-0.10834070
26.43999984	0.01800592
26.47999984	0.12640770
26.51999984	0.23480940
26.55999984	0.34321110
26.59999984	0.43354590
26.63999984	0.52388070
26.67999984	0.59608750
26.71999984	0.68642230
26.75999984	0.75869010
26.79999984	0.84902500
26.83999984	0.92129280
26.87999984	1.01162800
26.91999984	1.08389500
26.95999984	1.15616300
26.99999984	1.21030300
27.03999984	1.26450400
27.07999984	1.30063800
27.11999984	1.33677200
27.15999983	1.33677200
27.19999983	1.33677200
27.23999983	1.30063800
27.27999983	1.24643700
27.31999983	1.19223600
27.35999983	1.10196200
27.39999983	1.01162800
27.43999983	0.88515880
27.47999983	0.75869010
27.51999983	0.65028840
27.55999983	0.52388070
27.59999983	0.39741200
27.63999983	0.27094330
27.67999983	0.14447460
27.71999983	0.03607288
27.75999983	-0.07220680
27.79999983	-0.16254160
27.83999983	-0.25287640
27.87999983	-0.34321110
27.91999983	-0.41547900
27.95999983	-0.48774680
27.99999983	-0.57808160
28.03999983	-0.63222150
28.07999983	-0.70448930
28.11999983	-0.77675710
28.15999983	-0.84902500
28.19999983	-0.92129280
28.23999983	-0.97549360
28.27999983	-1.04776100
28.31999983	-1.12002900
28.35999983	-1.17416900
28.39999983	-1.22837000
28.43999983	-1.24643700
28.47999983	-1.28257100
28.51999983	-1.28257100
28.55999983	-1.26450400
28.59999983	-1.24643700
28.63999983	-1.19223600
28.67999983	-1.13809600
28.71999983	-1.04776100
28.75999983	-0.95742670
28.79999982	-0.86709190
28.83999982	-0.74062320
28.87999982	-0.63222150
28.91999982	-0.50581380
28.95999982	-0.37934510
28.99999982	-0.25287640
29.03999982	-0.12640770
29.07999982	0.00000000
29.11999982	0.10834070
29.15999982	0.21674250
29.19999982	0.30707720
29.23999982	0.41547900
29.27999982	0.50581380
29.31999982	0.57808160
29.35999982	0.65028840
29.39999982	0.72255620
29.43999982	0.81289100
29.47999982	0.90322580
29.51999982	0.97549360
29.55999982	1.06582800
29.59999982	1.13809600
29.63999982	1.21030300
29.67999982	1.28257100
29.71999982	1.31870500
29.75999982	1.33677200
29.79999982	1.35483900
29.83999982	1.33677200
29.87999982	1.31870500
29.91999982	1.28257100
29.95999982	1.19223600
29.99999982	1.12002900
30.03999982	1.01162800
30.07999982	0.90322580
30.11999982	0.79482410
30.15999982	0.66835530
30.19999982	0.54194770
30.23999982	0.41547900
30.27999982	0.28901030
30.31999982	0.16254160
30.35999982	0.05413984
30.39999982	-0.05413984
30.43999982	-0.14447460
30.47999981	-0.23480940
30.51999981	-0.32514420
30.55999981	-0.39741200
30.59999981	-0.46967990
30.63999981	-0.54194770
30.67999981	-0.61415450
30.71999981	-0.68642230
30.75999981	-0.75869010
30.79999981	-0.83095790
30.83999981	-0.90322580
30.87999981	-0.95742670
30.91999981	-1.02969500
30.95999981	-1.08389500
30.99999981	-1.15616300
31.03999981	-1.21030300
31.07999981	-1.22837000
31.11999981	-1.26450400
31.15999981	-1.28257100
31.19999981	-1.26450400
31.23999981	-1.24643700
31.27999981	-1.21030300
31.31999981	-1.15616300
31.35999981	-1.08389500
31.39999981	-0.99356060
31.43999981	-0.88515880
31.47999981	-0.77675710
31.51999981	-0.65028840
31.55999981	-0.54194770
31.59999981	-0.39741200
31.63999981	-0.27094330
31.67999981	-0.14447460
31.71999981	-0.03607288
31.75999981	0.09027375
31.79999981	0.19867550
31.83999981	0.28901030
31.87999981	0.39741200
31.91999981	0.46967990
31.95999981	0.56001470
31.99999981	0.65028840
32.03999981	0.72255620
32.07999981	0.79482410
32.11999980	0.86709190
32.15999980	0.95742670
32.19999980	1.04776100
32.23999980	1.12002900
32.27999980	1.19223600
32.31999980	1.24643700
32.35999980	1.30063800
32.39999980	1.31870500
32.43999980	1.33677200
32.47999980	1.33677200
32.51999980	1.33677200
32.55999980	1.28257100
32.59999980	1.22837000
32.63999980	1.13809600
32.67999980	1.06582800
32.71999980	0.93935970
32.75999980	0.83095790
32.79999980	0.72255620
32.83999980	0.57808160
32.87999980	0.45161290
32.91999980	0.30707720
32.95999980	0.19867550
