Time	Channel A
(us)	(V)

0.00000000	0.16254160
0.04000000	0.03607288
0.08000000	-0.07220680
0.12000000	-0.16254160
0.16000000	-0.25287640
0.20000000	-0.34321110
0.24000000	-0.41547900
0.28000000	-0.48774680
0.32000000	-0.57808160
0.36000000	-0.63222150
0.40000000	-0.68642230
0.44000000	-0.75869010
0.48000000	-0.83095790
0.52000000	-0.90322580
0.56000000	-0.97549360
0.60000000	-1.02969500
0.64000000	-1.10196200
0.68000000	-1.15616300
0.72000000	-1.19223600
0.76000000	-1.22837000
0.80000000	-1.24643700
0.83999999	-1.26450400
0.87999999	-1.26450400
0.91999999	-1.24643700
0.95999999	-1.21030300
0.99999999	-1.15616300
1.03999999	-1.08389500
1.07999999	-0.99356060
1.11999999	-0.88515880
1.15999999	-0.77675710
1.19999999	-0.65028840
1.23999999	-0.52388070
1.27999999	-0.39741200
1.31999999	-0.27094330
1.35999999	-0.14447460
1.39999999	-0.01800592
1.43999999	0.09027375
1.47999999	0.19867550
1.51999999	0.28901030
1.55999999	0.39741200
1.59999999	0.48774680
1.63999999	0.56001470
1.67999999	0.65028840
1.71999999	0.72255620
1.75999999	0.79482410
1.79999999	0.88515880
1.83999999	0.97549360
1.87999999	1.04776100
1.91999999	1.12002900
1.95999999	1.19223600
1.99999999	1.26450400
2.03999999	1.30063800
2.07999999	1.31870500
2.11999999	1.33677200
2.15999999	1.35483900
2.19999999	1.31870500
2.23999999	1.28257100
2.27999999	1.21030300
2.31999999	1.13809600
2.35999999	1.02969500
2.39999999	0.92129280
2.43999999	0.79482410
2.47999998	0.68642230
2.51999998	0.56001470
2.55999998	0.43354590
2.59999998	0.28901030
2.63999998	0.18060850
2.67999998	0.07220680
2.71999998	-0.03607288
2.75999998	-0.14447460
2.79999998	-0.23480940
2.83999998	-0.32514420
2.87999998	-0.37934510
2.91999998	-0.46967990
2.95999998	-0.54194770
2.99999998	-0.61415450
3.03999998	-0.68642230
3.07999998	-0.74062320
3.11999998	-0.81289100
3.15999998	-0.88515880
3.19999998	-0.95742670
3.23999998	-1.02969500
3.27999998	-1.08389500
3.31999998	-1.15616300
3.35999998	-1.19223600
3.39999998	-1.24643700
3.43999998	-1.26450400
3.47999998	-1.28257100
3.51999998	-1.26450400
3.55999998	-1.24643700
3.59999998	-1.21030300
3.63999998	-1.15616300
3.67999998	-1.08389500
3.71999998	-1.01162800
3.75999998	-0.88515880
3.79999998	-0.79482410
3.83999998	-0.66835530
3.87999998	-0.54194770
3.91999998	-0.41547900
3.95999998	-0.28901030
3.99999998	-0.16254160
4.03999998	-0.03607288
4.07999998	0.07220680
4.11999997	0.18060850
4.15999997	0.27094330
4.19999997	0.36127810
4.23999997	0.45161290
4.27999997	0.54194770
4.31999997	0.63222150
4.35999997	0.70448930
4.39999997	0.79482410
4.43999997	0.86709190
4.47999997	0.93935970
4.51999997	1.04776100
4.55999997	1.10196200
4.59999997	1.17416900
4.63999997	1.24643700
4.67999997	1.30063800
4.71999997	1.33677200
4.75999997	1.33677200
4.79999997	1.35483900
4.83999997	1.31870500
4.87999997	1.28257100
4.91999997	1.22837000
4.95999997	1.15616300
4.99999997	1.06582800
5.03999997	0.93935970
5.07999997	0.83095790
5.11999997	0.72255620
5.15999997	0.57808160
5.19999997	0.46967990
5.23999997	0.32514420
5.27999997	0.21674250
5.31999997	0.09027375
5.35999997	-0.01800592
5.39999997	-0.12640770
5.43999997	-0.21674250
5.47999997	-0.28901030
5.51999997	-0.37934510
5.55999997	-0.45161290
5.59999997	-0.52388070
5.63999997	-0.59608750
5.67999997	-0.65028840
5.71999997	-0.72255620
5.75999996	-0.79482410
5.79999996	-0.86709190
5.83999996	-0.93935970
5.87999996	-1.01162800
5.91999996	-1.08389500
5.95999996	-1.12002900
5.99999996	-1.17416900
6.03999996	-1.22837000
6.07999996	-1.24643700
6.11999996	-1.26450400
6.15999996	-1.28257100
6.19999996	-1.26450400
6.23999996	-1.22837000
6.27999996	-1.17416900
6.31999996	-1.10196200
6.35999996	-1.02969500
6.39999996	-0.92129280
6.43999996	-0.83095790
6.47999996	-0.70448930
6.51999996	-0.57808160
6.55999996	-0.43354590
6.59999996	-0.32514420
6.63999996	-0.19867550
6.67999996	-0.07220680
6.71999996	0.05413984
6.75999996	0.16254160
6.79999996	0.27094330
6.83999996	0.36127810
6.87999996	0.45161290
6.91999996	0.54194770
6.95999996	0.61415450
6.99999996	0.68642230
7.03999996	0.77675710
7.07999996	0.84902500
7.11999996	0.92129280
7.15999996	1.01162800
7.19999996	1.08389500
7.23999996	1.15616300
7.27999996	1.21030300
7.31999996	1.26450400
7.35999996	1.31870500
7.39999996	1.33677200
7.43999995	1.33677200
7.47999995	1.33677200
7.51999995	1.30063800
7.55999995	1.22837000
7.59999995	1.17416900
7.63999995	1.08389500
7.67999995	0.99356060
7.71999995	0.88515880
7.75999995	0.75869010
7.79999995	0.63222150
7.83999995	0.50581380
7.87999995	0.36127810
7.91999995	0.23480940
7.95999995	0.12640770
7.99999995	0.00000000
8.03999995	-0.10834070
8.07999995	-0.19867550
8.11999995	-0.28901030
8.15999995	-0.37934510
8.19999995	-0.45161290
8.23999995	-0.52388070
8.27999995	-0.57808160
8.31999995	-0.65028840
8.35999995	-0.72255620
8.39999995	-0.79482410
8.43999995	-0.84902500
8.47999995	-0.92129280
8.51999995	-0.99356060
8.55999995	-1.04776100
8.59999995	-1.10196200
8.63999995	-1.15616300
8.67999995	-1.21030300
8.71999995	-1.24643700
8.75999995	-1.24643700
8.79999995	-1.26450400
8.83999995	-1.26450400
8.87999995	-1.22837000
8.91999995	-1.19223600
8.95999995	-1.13809600
8.99999995	-1.04776100
9.03999995	-0.95742670
9.07999994	-0.84902500
9.11999994	-0.74062320
9.15999994	-0.61415450
9.19999994	-0.48774680
9.23999994	-0.36127810
9.27999994	-0.23480940
9.31999994	-0.10834070
9.35999994	0.01800592
9.39999994	0.14447460
9.43999994	0.23480940
9.47999994	0.34321110
9.51999994	0.43354590
9.55999994	0.52388070
9.59999994	0.59608750
9.63999994	0.66835530
9.67999994	0.75869010
9.71999994	0.83095790
9.75999994	0.92129280
9.79999994	1.01162800
9.83999994	1.06582800
9.87999994	1.15616300
9.91999994	1.21030300
9.95999994	1.26450400
9.99999994	1.30063800
10.03999994	1.33677200
10.07999994	1.33677200
10.11999994	1.31870500
10.15999994	1.30063800
10.19999994	1.24643700
10.23999994	1.17416900
10.27999994	1.10196200
10.31999994	1.01162800
10.35999994	0.88515880
10.39999994	0.77675710
10.43999994	0.65028840
10.47999994	0.52388070
10.51999994	0.37934510
10.55999994	0.27094330
10.59999994	0.14447460
10.63999994	0.03607288
10.67999994	-0.07220680
10.71999993	-0.18060850
10.75999993	-0.27094330
10.79999993	-0.36127810
10.83999993	-0.43354590
10.87999993	-0.50581380
10.91999993	-0.57808160
10.95999993	-0.65028840
10.99999993	-0.70448930
11.03999993	-0.77675710
11.07999993	-0.84902500
11.11999993	-0.90322580
11.15999993	-0.99356060
11.19999993	-1.04776100
11.23999993	-1.10196200
11.27999993	-1.15616300
11.31999993	-1.21030300
11.35999993	-1.24643700
11.39999993	-1.28257100
11.43999993	-1.28257100
11.47999993	-1.26450400
11.51999993	-1.24643700
11.55999993	-1.21030300
11.59999993	-1.13809600
11.63999993	-1.06582800
11.67999993	-0.97549360
11.71999993	-0.86709190
11.75999993	-0.74062320
11.79999993	-0.63222150
11.83999993	-0.50581380
11.87999993	-0.37934510
11.91999993	-0.25287640
11.95999993	-0.12640770
11.99999993	0.00000000
12.03999993	0.10834070
12.07999993	0.21674250
12.11999993	0.30707720
12.15999993	0.41547900
12.19999993	0.50581380
12.23999993	0.57808160
12.27999993	0.65028840
12.31999993	0.72255620
12.35999992	0.81289100
12.39999992	0.90322580
12.43999992	0.99356060
12.47999992	1.06582800
12.51999992	1.13809600
12.55999992	1.21030300
12.59999992	1.28257100
12.63999992	1.30063800
12.67999992	1.33677200
12.71999992	1.35483900
12.75999992	1.35483900
12.79999992	1.31870500
12.83999992	1.28257100
12.87999992	1.19223600
12.91999992	1.12002900
12.95999992	1.01162800
12.99999992	0.92129280
13.03999992	0.79482410
13.07999992	0.66835530
13.11999992	0.54194770
13.15999992	0.41547900
13.19999992	0.28901030
13.23999992	0.16254160
13.27999992	0.05413984
13.31999992	-0.05413984
13.35999992	-0.14447460
13.39999992	-0.25287640
13.43999992	-0.32514420
13.47999992	-0.41547900
13.51999992	-0.48774680
13.55999992	-0.56001470
13.59999992	-0.61415450
13.63999992	-0.68642230
13.67999992	-0.75869010
13.71999992	-0.83095790
13.75999992	-0.88515880
13.79999992	-0.97549360
13.83999992	-1.02969500
13.87999992	-1.10196200
13.91999992	-1.15616300
13.95999992	-1.21030300
13.99999991	-1.24643700
14.03999991	-1.28257100
14.07999991	-1.30063800
14.11999991	-1.28257100
14.15999991	-1.26450400
14.19999991	-1.21030300
14.23999991	-1.15616300
14.27999991	-1.08389500
14.31999991	-0.99356060
14.35999991	-0.88515880
14.39999991	-0.77675710
14.43999991	-0.65028840
14.47999991	-0.52388070
14.51999991	-0.39741200
14.55999991	-0.27094330
14.59999991	-0.14447460
14.63999991	-0.01800592
14.67999991	0.09027375
14.71999991	0.19867550
14.75999991	0.28901030
14.79999991	0.39741200
14.83999991	0.48774680
14.87999991	0.56001470
14.91999991	0.65028840
14.95999991	0.72255620
14.99999991	0.79482410
15.03999991	0.88515880
15.07999991	0.95742670
15.11999991	1.06582800
15.15999991	1.12002900
15.19999991	1.19223600
15.23999991	1.26450400
15.27999991	1.30063800
15.31999991	1.33677200
15.35999991	1.35483900
15.39999991	1.35483900
15.43999991	1.31870500
15.47999991	1.28257100
15.51999991	1.22837000
15.55999991	1.13809600
15.59999991	1.04776100
15.63999990	0.93935970
15.67999990	0.81289100
15.71999990	0.70448930
15.75999990	0.56001470
15.79999990	0.43354590
15.83999990	0.30707720
15.87999990	0.18060850
15.91999990	0.05413984
15.95999990	-0.03607288
15.99999990	-0.14447460
16.03999990	-0.23480940
16.07999990	-0.32514420
16.11999990	-0.39741200
16.15999990	-0.46967990
16.19999990	-0.54194770
16.23999990	-0.61415450
16.27999990	-0.66835530
16.31999990	-0.74062320
16.35999990	-0.81289100
16.39999990	-0.86709190
16.43999990	-0.93935970
16.47999990	-1.01162800
16.51999990	-1.08389500
16.55999990	-1.15616300
16.59999990	-1.19223600
16.63999990	-1.22837000
16.67999990	-1.26450400
16.71999990	-1.28257100
16.75999990	-1.28257100
16.79999990	-1.26450400
16.83999990	-1.22837000
16.87999990	-1.17416900
16.91999990	-1.10196200
16.95999990	-1.01162800
16.99999990	-0.92129280
17.03999990	-0.79482410
17.07999990	-0.68642230
17.11999990	-0.57808160
17.15999990	-0.43354590
17.19999990	-0.30707720
17.23999990	-0.16254160
17.27999989	-0.05413984
17.31999989	0.07220680
17.35999989	0.18060850
17.39999989	0.28901030
17.43999989	0.37934510
17.47999989	0.46967990
17.51999989	0.54194770
17.55999989	0.63222150
17.59999989	0.72255620
17.63999989	0.77675710
17.67999989	0.86709190
17.71999989	0.93935970
17.75999989	1.02969500
17.79999989	1.10196200
17.83999989	1.17416900
17.87999989	1.22837000
17.91999989	1.30063800
17.95999989	1.31870500
17.99999989	1.35483900
18.03999989	1.35483900
18.07999989	1.31870500
18.11999989	1.30063800
18.15999989	1.22837000
18.19999989	1.15616300
18.23999989	1.06582800
18.27999989	0.97549360
18.31999989	0.84902500
18.35999989	0.72255620
18.39999989	0.59608750
18.43999989	0.46967990
18.47999989	0.34321110
18.51999989	0.21674250
18.55999989	0.10834070
18.59999989	-0.01800592
18.63999989	-0.10834070
18.67999989	-0.21674250
18.71999989	-0.30707720
18.75999989	-0.37934510
18.79999989	-0.45161290
18.83999989	-0.52388070
18.87999989	-0.59608750
18.91999989	-0.66835530
18.95999988	-0.72255620
18.99999988	-0.81289100
19.03999988	-0.86709190
19.07999988	-0.93935970
19.11999988	-1.01162800
19.15999988	-1.08389500
19.19999988	-1.13809600
19.23999988	-1.19223600
19.27999988	-1.22837000
19.31999988	-1.24643700
19.35999988	-1.28257100
19.39999988	-1.28257100
19.43999988	-1.26450400
19.47999988	-1.22837000
19.51999988	-1.17416900
19.55999988	-1.12002900
19.59999988	-1.02969500
19.63999988	-0.93935970
19.67999988	-0.83095790
19.71999988	-0.70448930
19.75999988	-0.59608750
19.79999988	-0.45161290
19.83999988	-0.34321110
19.87999988	-0.21674250
19.91999988	-0.07220680
19.95999988	0.03607288
19.99999988	0.14447460
20.03999988	0.25287640
20.07999988	0.36127810
20.11999988	0.45161290
20.15999988	0.54194770
20.19999988	0.61415450
20.23999988	0.70448930
20.27999988	0.77675710
20.31999988	0.84902500
20.35999988	0.92129280
20.39999988	1.01162800
20.43999988	1.08389500
20.47999988	1.15616300
20.51999988	1.21030300
20.55999988	1.26450400
20.59999987	1.30063800
20.63999987	1.33677200
20.67999987	1.33677200
20.71999987	1.33677200
20.75999987	1.30063800
20.79999987	1.24643700
20.83999987	1.17416900
20.87999987	1.08389500
20.91999987	0.99356060
20.95999987	0.88515880
20.99999987	0.75869010
21.03999987	0.63222150
21.07999987	0.50581380
21.11999987	0.36127810
21.15999987	0.25287640
21.19999987	0.12640770
21.23999987	0.00000000
21.27999987	-0.09027375
21.31999987	-0.18060850
21.35999987	-0.28901030
21.39999987	-0.36127810
21.43999987	-0.43354590
21.47999987	-0.52388070
21.51999987	-0.57808160
21.55999987	-0.65028840
21.59999987	-0.72255620
21.63999987	-0.77675710
21.67999987	-0.86709190
21.71999987	-0.92129280
21.75999987	-0.99356060
21.79999987	-1.04776100
21.83999987	-1.12002900
21.87999987	-1.15616300
21.91999987	-1.21030300
21.95999987	-1.24643700
21.99999987	-1.26450400
22.03999987	-1.26450400
22.07999987	-1.26450400
22.11999987	-1.22837000
22.15999987	-1.19223600
22.19999987	-1.13809600
22.23999986	-1.04776100
22.27999986	-0.95742670
22.31999986	-0.86709190
22.35999986	-0.72255620
22.39999986	-0.61415450
22.43999986	-0.48774680
22.47999986	-0.36127810
22.51999986	-0.23480940
22.55999986	-0.10834070
22.59999986	0.00000000
22.63999986	0.12640770
22.67999986	0.21674250
22.71999986	0.34321110
22.75999986	0.43354590
22.79999986	0.50581380
22.83999986	0.59608750
22.87999986	0.66835530
22.91999986	0.75869010
22.95999986	0.83095790
22.99999986	0.92129280
23.03999986	0.99356060
23.07999986	1.06582800
23.11999986	1.13809600
23.15999986	1.21030300
23.19999986	1.26450400
23.23999986	1.31870500
23.27999986	1.33677200
23.31999986	1.35483900
23.35999986	1.33677200
23.39999986	1.30063800
23.43999986	1.26450400
23.47999986	1.19223600
23.51999986	1.10196200
23.55999986	1.01162800
23.59999986	0.90322580
23.63999986	0.79482410
23.67999986	0.65028840
23.71999986	0.52388070
23.75999986	0.39741200
23.79999986	0.27094330
23.83999986	0.14447460
23.87999985	0.03607288
23.91999985	-0.07220680
23.95999985	-0.16254160
23.99999985	-0.25287640
24.03999985	-0.34321110
24.07999985	-0.41547900
24.11999985	-0.50581380
24.15999985	-0.57808160
24.19999985	-0.63222150
24.23999985	-0.70448930
24.27999985	-0.77675710
24.31999985	-0.83095790
24.35999985	-0.90322580
24.39999985	-0.97549360
24.43999985	-1.04776100
24.47999985	-1.10196200
24.51999985	-1.15616300
24.55999985	-1.21030300
24.59999985	-1.22837000
24.63999985	-1.26450400
24.67999985	-1.26450400
24.71999985	-1.26450400
24.75999985	-1.24643700
24.79999985	-1.21030300
24.83999985	-1.15616300
24.87999985	-1.08389500
24.91999985	-0.97549360
24.95999985	-0.86709190
24.99999985	-0.75869010
25.03999985	-0.65028840
25.07999985	-0.52388070
25.11999985	-0.37934510
25.15999985	-0.25287640
25.19999985	-0.12640770
25.23999985	-0.01800592
25.27999985	0.10834070
25.31999985	0.21674250
25.35999985	0.30707720
25.39999985	0.41547900
25.43999985	0.48774680
25.47999985	0.57808160
25.51999984	0.65028840
25.55999984	0.72255620
25.59999984	0.81289100
25.63999984	0.88515880
25.67999984	0.97549360
25.71999984	1.06582800
25.75999984	1.13809600
25.79999984	1.19223600
25.83999984	1.26450400
25.87999984	1.30063800
25.91999984	1.33677200
25.95999984	1.33677200
25.99999984	1.33677200
26.03999984	1.30063800
26.07999984	1.24643700
26.11999984	1.19223600
26.15999984	1.12002900
26.19999984	1.02969500
26.23999984	0.92129280
26.27999984	0.79482410
26.31999984	0.68642230
26.35999984	0.56001470
26.39999984	0.43354590
26.43999984	0.28901030
26.47999984	0.18060850
26.51999984	0.05413984
26.55999984	-0.03607288
26.59999984	-0.14447460
26.63999984	-0.23480940
26.67999984	-0.32514420
26.71999984	-0.39741200
26.75999984	-0.48774680
26.79999984	-0.56001470
26.83999984	-0.63222150
26.87999984	-0.68642230
26.91999984	-0.75869010
26.95999984	-0.83095790
26.99999984	-0.90322580
27.03999984	-0.97549360
27.07999984	-1.02969500
27.11999984	-1.10196200
27.15999983	-1.15616300
27.19999983	-1.19223600
27.23999983	-1.22837000
27.27999983	-1.26450400
27.31999983	-1.26450400
27.35999983	-1.26450400
27.39999983	-1.24643700
27.43999983	-1.21030300
27.47999983	-1.15616300
27.51999983	-1.08389500
27.55999983	-0.99356060
27.59999983	-0.88515880
27.63999983	-0.79482410
27.67999983	-0.66835530
27.71999983	-0.54194770
27.75999983	-0.41547900
27.79999983	-0.28901030
27.83999983	-0.16254160
27.87999983	-0.03607288
27.91999983	0.07220680
27.95999983	0.18060850
27.99999983	0.28901030
28.03999983	0.37934510
28.07999983	0.46967990
28.11999983	0.56001470
28.15999983	0.63222150
28.19999983	0.72255620
28.23999983	0.79482410
28.27999983	0.88515880
28.31999983	0.97549360
28.35999983	1.04776100
28.39999983	1.12002900
28.43999983	1.19223600
28.47999983	1.24643700
28.51999983	1.30063800
28.55999983	1.31870500
28.59999983	1.33677200
28.63999983	1.33677200
28.67999983	1.31870500
28.71999983	1.28257100
28.75999983	1.21030300
28.79999982	1.13809600
28.83999982	1.04776100
28.87999982	0.93935970
28.91999982	0.81289100
28.95999982	0.70448930
28.99999982	0.57808160
29.03999982	0.45161290
29.07999982	0.32514420
29.11999982	0.19867550
29.15999982	0.07220680
29.19999982	-0.03607288
29.23999982	-0.12640770
29.27999982	-0.21674250
29.31999982	-0.30707720
29.35999982	-0.37934510
29.39999982	-0.45161290
29.43999982	-0.54194770
29.47999982	-0.59608750
29.51999982	-0.66835530
29.55999982	-0.74062320
29.59999982	-0.81289100
29.63999982	-0.88515880
29.67999982	-0.95742670
29.71999982	-1.02969500
29.75999982	-1.08389500
29.79999982	-1.15616300
29.83999982	-1.19223600
29.87999982	-1.22837000
29.91999982	-1.26450400
29.95999982	-1.28257100
29.99999982	-1.26450400
30.03999982	-1.24643700
30.07999982	-1.21030300
30.11999982	-1.15616300
30.15999982	-1.10196200
30.19999982	-1.01162800
30.23999982	-0.92129280
30.27999982	-0.79482410
30.31999982	-0.68642230
30.35999982	-0.56001470
30.39999982	-0.43354590
30.43999982	-0.30707720
30.47999981	-0.18060850
30.51999981	-0.05413984
30.55999981	0.05413984
30.59999981	0.16254160
30.63999981	0.27094330
30.67999981	0.36127810
30.71999981	0.45161290
30.75999981	0.52388070
30.79999981	0.61415450
30.83999981	0.70448930
30.87999981	0.77675710
30.91999981	0.86709190
30.95999981	0.93935970
30.99999981	1.02969500
31.03999981	1.08389500
31.07999981	1.15616300
31.11999981	1.22837000
31.15999981	1.30063800
31.19999981	1.31870500
31.23999981	1.33677200
31.27999981	1.33677200
31.31999981	1.33677200
31.35999981	1.30063800
31.39999981	1.22837000
31.43999981	1.15616300
31.47999981	1.08389500
31.51999981	0.95742670
31.55999981	0.84902500
31.59999981	0.72255620
31.63999981	0.59608750
31.67999981	0.46967990
31.71999981	0.34321110
31.75999981	0.21674250
31.79999981	0.09027375
31.83999981	0.00000000
31.87999981	-0.10834070
31.91999981	-0.21674250
31.95999981	-0.30707720
31.99999981	-0.37934510
32.03999981	-0.45161290
32.07999981	-0.52388070
32.11999980	-0.57808160
32.15999980	-0.65028840
32.19999980	-0.72255620
32.23999980	-0.79482410
32.27999980	-0.86709190
32.31999980	-0.93935970
32.35999980	-1.01162800
32.39999980	-1.06582800
32.43999980	-1.12002900
32.47999980	-1.17416900
32.51999980	-1.22837000
32.55999980	-1.26450400
32.59999980	-1.28257100
32.63999980	-1.28257100
32.67999980	-1.26450400
32.71999980	-1.22837000
32.75999980	-1.17416900
32.79999980	-1.12002900
32.83999980	-1.02969500
32.87999980	-0.93935970
32.91999980	-0.83095790
