Time,Channel A
(us),(V)

0.00000000,-1.07532000
0.04000000,-0.94088570
0.08000000,-0.85131380
0.12000000,-0.71703240
0.16000000,-0.62746050
0.20000000,-0.44831690
0.24000000,-0.35874510
0.28000000,-0.22446360
0.32000000,-0.09002960
0.36000000,-0.00061037
0.40000000,0.13367110
0.44000000,0.26795250
0.48000000,0.35752430
0.52000000,0.40238650
0.56000000,0.53666800
0.60000000,0.62623980
0.64000000,0.71581160
0.68000000,0.76052120
0.72000000,0.85009310
0.76000000,0.89495530
0.80000000,1.02923700
0.83999999,1.07409900
0.87999999,1.16367100
0.91999999,1.25324300
0.95999999,1.29795200
0.99999999,1.34281400
1.03999999,1.38752400
1.07999999,1.38752400
1.11999999,1.38752400
1.15999999,1.34281400
1.19999999,1.29795200
1.23999999,1.25324300
1.27999999,1.16367100
1.31999999,1.07409900
1.35999999,0.93966490
1.39999999,0.85009310
1.43999999,0.71581160
1.47999999,0.58153020
1.51999999,0.44709620
1.55999999,0.31281470
1.59999999,0.17838070
1.63999999,0.08880886
1.67999999,-0.04531999
1.71999999,-0.13489180
1.75999999,-0.22446360
1.79999999,-0.35874510
1.83999999,-0.40360730
1.87999999,-0.44831690
1.91999999,-0.53788870
1.95999999,-0.62746050
1.99999999,-0.67232280
2.03999999,-0.76174200
2.07999999,-0.80660420
2.11999999,-0.89617600
2.15999999,-0.94088570
2.19999999,-0.98574790
2.23999999,-1.07532000
2.27999999,-1.12002900
2.31999999,-1.20960100
2.35999999,-1.25446300
2.39999999,-1.25446300
2.43999999,-1.25446300
2.47999998,-1.25446300
2.51999998,-1.25446300
2.55999998,-1.20960100
2.59999998,-1.12002900
2.63999998,-1.07532000
2.67999998,-0.98574790
2.71999998,-0.89617600
2.75999998,-0.76174200
2.79999998,-0.62746050
2.83999998,-0.53788870
2.87999998,-0.35874510
2.91999998,-0.26917330
2.95999998,-0.13489180
2.99999998,-0.00061037
3.03999998,0.08880886
3.07999998,0.22324290
3.11999998,0.35752430
3.15999998,0.40238650
3.19999998,0.53666800
3.23999998,0.58153020
3.27999998,0.67110200
3.31999998,0.71581160
3.35999998,0.85009310
3.39999998,0.89495530
3.43999998,0.98452710
3.47999998,1.07409900
3.51999998,1.16367100
3.55999998,1.20838000
3.59999998,1.25324300
3.63999998,1.34281400
3.67999998,1.38752400
3.71999998,1.38752400
3.75999998,1.38752400
3.79999998,1.34281400
3.83999998,1.29795200
3.87999998,1.25324300
3.91999998,1.16367100
3.95999998,1.07409900
3.99999998,0.93966490
4.03999998,0.85009310
4.07999998,0.71581160
4.11999997,0.58153020
4.15999997,0.44709620
4.19999997,0.35752430
4.23999997,0.17838070
4.27999997,0.08880886
4.31999997,-0.00061037
4.35999997,-0.09002960
4.39999997,-0.22446360
4.43999997,-0.31403550
4.47999997,-0.35874510
4.51999997,-0.44831690
4.55999997,-0.53788870
4.59999997,-0.58275090
4.63999997,-0.67232280
4.67999997,-0.71703240
4.71999997,-0.80660420
4.75999997,-0.89617600
4.79999997,-0.94088570
4.83999997,-1.03045700
4.87999997,-1.07532000
4.91999997,-1.12002900
4.95999997,-1.20960100
4.99999997,-1.25446300
5.03999997,-1.25446300
5.07999997,-1.25446300
5.11999997,-1.25446300
5.15999997,-1.25446300
5.19999997,-1.25446300
5.23999997,-1.16489100
5.27999997,-1.07532000
5.31999997,-0.98574790
5.35999997,-0.89617600
5.39999997,-0.76174200
5.43999997,-0.67232280
5.47999997,-0.53788870
5.51999997,-0.40360730
5.55999997,-0.26917330
5.59999997,-0.17960140
5.63999997,-0.04531999
5.67999997,0.08880886
5.71999997,0.17838070
5.75999996,0.31281470
5.79999996,0.35752430
5.83999996,0.49195840
5.87999996,0.58153020
5.91999996,0.67110200
5.95999996,0.71581160
5.99999996,0.80538340
6.03999996,0.89495530
6.07999996,0.98452710
6.11999996,1.07409900
6.15999996,1.11880900
6.19999996,1.20838000
6.23999996,1.25324300
6.27999996,1.34281400
6.31999996,1.34281400
6.35999996,1.38752400
6.39999996,1.38752400
6.43999996,1.38752400
6.47999996,1.29795200
6.51999996,1.25324300
6.55999996,1.16367100
6.59999996,1.07409900
6.63999996,0.98452710
6.67999996,0.85009310
6.71999996,0.76052120
6.75999996,0.62623980
6.79999996,0.49195840
6.83999996,0.35752430
6.87999996,0.22324290
6.91999996,0.08880886
6.95999996,-0.00061037
6.99999996,-0.09002960
7.03999996,-0.17960140
7.07999996,-0.26917330
7.11999996,-0.35874510
7.15999996,-0.40360730
7.19999996,-0.53788870
7.23999996,-0.58275090
7.27999996,-0.67232280
7.31999996,-0.71703240
7.35999996,-0.80660420
7.39999996,-0.89617600
7.43999995,-0.94088570
7.47999995,-0.98574790
7.51999995,-1.07532000
7.55999995,-1.12002900
7.59999995,-1.16489100
7.63999995,-1.20960100
7.67999995,-1.25446300
7.71999995,-1.25446300
7.75999995,-1.29917300
7.79999995,-1.25446300
7.83999995,-1.25446300
7.87999995,-1.16489100
7.91999995,-1.07532000
7.95999995,-1.03045700
7.99999995,-0.89617600
8.03999995,-0.80660420
8.07999995,-0.71703240
8.11999995,-0.58275090
8.15999995,-0.40360730
8.19999995,-0.31403550
8.23999995,-0.17960140
8.27999995,-0.04531999
8.31999995,0.04409925
8.35999995,0.17838070
8.39999995,0.31281470
8.43999995,0.35752430
8.47999995,0.49195840
8.51999995,0.53666800
8.55999995,0.62623980
8.59999995,0.71581160
8.63999995,0.80538340
8.67999995,0.85009310
8.71999995,0.93966490
8.75999995,1.02923700
8.79999995,1.11880900
8.83999995,1.20838000
8.87999995,1.25324300
8.91999995,1.29795200
8.95999995,1.34281400
8.99999995,1.38752400
9.03999995,1.38752400
9.07999994,1.38752400
9.11999994,1.34281400
9.15999994,1.25324300
9.19999994,1.20838000
9.23999994,1.11880900
9.27999994,1.02923700
9.31999994,0.89495530
9.35999994,0.76052120
9.39999994,0.67110200
9.43999994,0.53666800
9.47999994,0.40238650
9.51999994,0.26795250
9.55999994,0.13367110
9.59999994,-0.00061037
9.63999994,-0.09002960
9.67999994,-0.17960140
9.71999994,-0.26917330
9.75999994,-0.35874510
9.79999994,-0.40360730
9.83999994,-0.49317910
9.87999994,-0.58275090
9.91999994,-0.62746050
9.95999994,-0.71703240
9.99999994,-0.76174200
10.03999994,-0.85131380
10.07999994,-0.89617600
10.11999994,-0.98574790
10.15999994,-1.07532000
10.19999994,-1.07532000
10.23999994,-1.16489100
10.27999994,-1.20960100
10.31999994,-1.25446300
10.35999994,-1.25446300
10.39999994,-1.25446300
10.43999994,-1.25446300
10.47999994,-1.25446300
10.51999994,-1.16489100
10.55999994,-1.12002900
10.59999994,-1.03045700
10.63999994,-0.94088570
10.67999994,-0.85131380
10.71999993,-0.71703240
10.75999993,-0.58275090
10.79999993,-0.44831690
10.83999993,-0.35874510
10.87999993,-0.22446360
10.91999993,-0.09002960
10.95999993,-0.00061037
10.99999993,0.13367110
11.03999993,0.26795250
11.07999993,0.35752430
11.11999993,0.44709620
11.15999993,0.53666800
11.19999993,0.62623980
11.23999993,0.71581160
11.27999993,0.76052120
11.31999993,0.85009310
11.35999993,0.93966490
11.39999993,1.02923700
11.43999993,1.11880900
11.47999993,1.16367100
11.51999993,1.25324300
11.55999993,1.29795200
11.59999993,1.34281400
11.63999993,1.34281400
11.67999993,1.38752400
11.71999993,1.34281400
11.75999993,1.34281400
11.79999993,1.29795200
11.83999993,1.20838000
11.87999993,1.11880900
11.91999993,1.02923700
11.95999993,0.89495530
11.99999993,0.80538340
12.03999993,0.67110200
12.07999993,0.53666800
12.11999993,0.40238650
12.15999993,0.26795250
12.19999993,0.17838070
12.23999993,0.04409925
12.27999993,-0.04531999
12.31999993,-0.17960140
12.35999992,-0.22446360
12.39999992,-0.31403550
12.43999992,-0.40360730
12.47999992,-0.49317910
12.51999992,-0.53788870
12.55999992,-0.62746050
12.59999992,-0.71703240
12.63999992,-0.76174200
12.67999992,-0.80660420
12.71999992,-0.89617600
12.75999992,-0.94088570
12.79999992,-1.03045700
12.83999992,-1.07532000
12.87999992,-1.12002900
12.91999992,-1.20960100
12.95999992,-1.25446300
12.99999992,-1.25446300
13.03999992,-1.25446300
13.07999992,-1.25446300
13.11999992,-1.25446300
13.15999992,-1.16489100
13.19999992,-1.12002900
13.23999992,-1.07532000
13.27999992,-0.98574790
13.31999992,-0.85131380
13.35999992,-0.76174200
13.39999992,-0.62746050
13.43999992,-0.49317910
13.47999992,-0.35874510
13.51999992,-0.22446360
13.55999992,-0.09002960
13.59999992,-0.00061037
13.63999992,0.13367110
13.67999992,0.22324290
13.71999992,0.35752430
13.75999992,0.40238650
13.79999992,0.53666800
13.83999992,0.58153020
13.87999992,0.67110200
13.91999992,0.71581160
13.95999992,0.80538340
13.99999991,0.89495530
14.03999991,1.02923700
14.07999991,1.07409900
14.11999991,1.16367100
14.15999991,1.25324300
14.19999991,1.25324300
14.23999991,1.34281400
14.27999991,1.34281400
14.31999991,1.38752400
14.35999991,1.38752400
14.39999991,1.34281400
14.43999991,1.29795200
14.47999991,1.25324300
14.51999991,1.16367100
14.55999991,1.07409900
14.59999991,0.93966490
14.63999991,0.85009310
14.67999991,0.71581160
14.71999991,0.53666800
14.75999991,0.44709620
14.79999991,0.31281470
14.83999991,0.17838070
14.87999991,0.04409925
14.91999991,-0.04531999
14.95999991,-0.09002960
14.99999991,-0.22446360
15.03999991,-0.31403550
15.07999991,-0.40360730
15.11999991,-0.44831690
15.15999991,-0.53788870
15.19999991,-0.58275090
15.23999991,-0.67232280
15.27999991,-0.76174200
15.31999991,-0.80660420
15.35999991,-0.89617600
15.39999991,-0.94088570
15.43999991,-1.03045700
15.47999991,-1.07532000
15.51999991,-1.12002900
15.55999991,-1.16489100
15.59999991,-1.25446300
15.63999990,-1.25446300
15.67999990,-1.25446300
15.71999990,-1.25446300
15.75999990,-1.25446300
15.79999990,-1.20960100
15.83999990,-1.12002900
15.87999990,-1.07532000
15.91999990,-0.98574790
15.95999990,-0.89617600
15.99999990,-0.76174200
16.03999990,-0.67232280
16.07999990,-0.53788870
16.11999990,-0.40360730
16.15999990,-0.22446360
16.19999990,-0.13489180
16.23999990,-0.00061037
16.27999990,0.08880886
16.31999990,0.17838070
16.35999990,0.31281470
16.39999990,0.40238650
16.43999990,0.49195840
16.47999990,0.58153020
16.51999990,0.67110200
16.55999990,0.71581160
16.59999990,0.80538340
16.63999990,0.89495530
16.67999990,0.98452710
16.71999990,1.07409900
16.75999990,1.16367100
16.79999990,1.20838000
16.83999990,1.25324300
16.87999990,1.29795200
16.91999990,1.34281400
16.95999990,1.34281400
16.99999990,1.38752400
17.03999990,1.34281400
17.07999990,1.29795200
17.11999990,1.25324300
17.15999990,1.16367100
17.19999990,1.07409900
17.23999990,0.98452710
17.27999989,0.85009310
17.31999989,0.71581160
17.35999989,0.58153020
17.39999989,0.49195840
17.43999989,0.35752430
17.47999989,0.17838070
17.51999989,0.08880886
17.55999989,-0.00061037
17.59999989,-0.09002960
17.63999989,-0.17960140
17.67999989,-0.31403550
17.71999989,-0.35874510
17.75999989,-0.44831690
17.79999989,-0.53788870
17.83999989,-0.62746050
17.87999989,-0.67232280
17.91999989,-0.76174200
17.95999989,-0.80660420
17.99999989,-0.89617600
18.03999989,-0.94088570
18.07999989,-0.98574790
18.11999989,-1.07532000
18.15999989,-1.12002900
18.19999989,-1.16489100
18.23999989,-1.25446300
18.27999989,-1.25446300
18.31999989,-1.25446300
18.35999989,-1.25446300
18.39999989,-1.25446300
18.43999989,-1.20960100
18.47999989,-1.12002900
18.51999989,-1.07532000
18.55999989,-0.98574790
18.59999989,-0.89617600
18.63999989,-0.80660420
18.67999989,-0.67232280
18.71999989,-0.58275090
18.75999989,-0.40360730
18.79999989,-0.31403550
18.83999989,-0.17960140
18.87999989,-0.04531999
18.91999989,0.08880886
18.95999988,0.17838070
18.99999988,0.31281470
19.03999988,0.35752430
19.07999988,0.49195840
19.11999988,0.53666800
19.15999988,0.67110200
19.19999988,0.71581160
19.23999988,0.80538340
19.27999988,0.85009310
19.31999988,0.93966490
19.35999988,1.07409900
19.39999988,1.11880900
19.43999988,1.20838000
19.47999988,1.25324300
19.51999988,1.29795200
19.55999988,1.34281400
19.59999988,1.38752400
19.63999988,1.38752400
19.67999988,1.34281400
19.71999988,1.29795200
19.75999988,1.25324300
19.79999988,1.16367100
19.83999988,1.07409900
19.87999988,0.98452710
19.91999988,0.85009310
19.95999988,0.76052120
19.99999988,0.62623980
20.03999988,0.49195840
20.07999988,0.35752430
20.11999988,0.22324290
20.15999988,0.13367110
20.19999988,-0.00061037
20.23999988,-0.09002960
20.27999988,-0.17960140
20.31999988,-0.26917330
20.35999988,-0.35874510
20.39999988,-0.44831690
20.43999988,-0.53788870
20.47999988,-0.58275090
20.51999988,-0.62746050
20.55999988,-0.71703240
20.59999987,-0.76174200
20.63999987,-0.85131380
20.67999987,-0.89617600
20.71999987,-0.98574790
20.75999987,-1.07532000
20.79999987,-1.12002900
20.83999987,-1.16489100
20.87999987,-1.25446300
20.91999987,-1.25446300
20.95999987,-1.25446300
20.99999987,-1.25446300
21.03999987,-1.25446300
21.07999987,-1.20960100
21.11999987,-1.12002900
21.15999987,-1.07532000
21.19999987,-1.03045700
21.23999987,-0.89617600
21.27999987,-0.80660420
21.31999987,-0.71703240
21.35999987,-0.58275090
21.39999987,-0.44831690
21.43999987,-0.31403550
21.47999987,-0.17960140
21.51999987,-0.04531999
21.55999987,0.04409925
21.59999987,0.17838070
21.63999987,0.26795250
21.67999987,0.35752430
21.71999987,0.44709620
21.75999987,0.53666800
21.79999987,0.62623980
21.83999987,0.71581160
21.87999987,0.76052120
21.91999987,0.85009310
21.95999987,0.93966490
21.99999987,1.02923700
22.03999987,1.11880900
22.07999987,1.20838000
22.11999987,1.25324300
22.15999987,1.29795200
22.19999987,1.34281400
22.23999986,1.34281400
22.27999986,1.38752400
22.31999986,1.34281400
22.35999986,1.34281400
22.39999986,1.25324300
22.43999986,1.20838000
22.47999986,1.11880900
22.51999986,1.02923700
22.55999986,0.89495530
22.59999986,0.76052120
22.63999986,0.67110200
22.67999986,0.49195840
22.71999986,0.35752430
22.75999986,0.22324290
22.79999986,0.13367110
22.83999986,0.04409925
22.87999986,-0.09002960
22.91999986,-0.17960140
22.95999986,-0.26917330
22.99999986,-0.35874510
23.03999986,-0.40360730
23.07999986,-0.49317910
23.11999986,-0.53788870
23.15999986,-0.62746050
23.19999986,-0.67232280
23.23999986,-0.76174200
23.27999986,-0.80660420
23.31999986,-0.89617600
23.35999986,-0.94088570
23.39999986,-1.07532000
23.43999986,-1.07532000
23.47999986,-1.12002900
23.51999986,-1.20960100
23.55999986,-1.25446300
23.59999986,-1.25446300
23.63999986,-1.25446300
23.67999986,-1.25446300
23.71999986,-1.25446300
23.75999986,-1.16489100
23.79999986,-1.12002900
23.83999986,-1.03045700
23.87999985,-0.94088570
23.91999985,-0.85131380
23.95999985,-0.71703240
23.99999985,-0.58275090
24.03999985,-0.49317910
24.07999985,-0.31403550
24.11999985,-0.22446360
24.15999985,-0.09002960
24.19999985,0.04409925
24.23999985,0.13367110
24.27999985,0.26795250
24.31999985,0.35752430
24.35999985,0.44709620
24.39999985,0.53666800
24.43999985,0.62623980
24.47999985,0.71581160
24.51999985,0.76052120
24.55999985,0.85009310
24.59999985,0.89495530
24.63999985,1.02923700
24.67999985,1.07409900
24.71999985,1.16367100
24.75999985,1.20838000
24.79999985,1.29795200
24.83999985,1.34281400
24.87999985,1.34281400
24.91999985,1.38752400
24.95999985,1.34281400
24.99999985,1.34281400
25.03999985,1.29795200
25.07999985,1.20838000
25.11999985,1.16367100
25.15999985,1.02923700
25.19999985,0.89495530
25.23999985,0.80538340
25.27999985,0.67110200
25.31999985,0.53666800
25.35999985,0.40238650
25.39999985,0.31281470
25.43999985,0.17838070
25.47999985,0.04409925
25.51999984,-0.04531999
25.55999984,-0.17960140
25.59999984,-0.22446360
25.63999984,-0.31403550
25.67999984,-0.40360730
25.71999984,-0.49317910
25.75999984,-0.58275090
25.79999984,-0.62746050
25.83999984,-0.67232280
25.87999984,-0.76174200
25.91999984,-0.80660420
25.95999984,-0.89617600
25.99999984,-0.94088570
26.03999984,-1.03045700
26.07999984,-1.07532000
26.11999984,-1.12002900
26.15999984,-1.16489100
26.19999984,-1.25446300
26.23999984,-1.25446300
26.27999984,-1.25446300
26.31999984,-1.25446300
26.35999984,-1.20960100
26.39999984,-1.20960100
26.43999984,-1.12002900
26.47999984,-1.07532000
26.51999984,-0.94088570
26.55999984,-0.89617600
26.59999984,-0.76174200
26.63999984,-0.62746050
26.67999984,-0.53788870
26.71999984,-0.35874510
26.75999984,-0.22446360
26.79999984,-0.09002960
26.83999984,-0.00061037
26.87999984,0.08880886
26.91999984,0.22324290
26.95999984,0.31281470
26.99999984,0.44709620
27.03999984,0.53666800
27.07999984,0.58153020
27.11999984,0.67110200
27.15999983,0.76052120
27.19999983,0.85009310
27.23999983,0.89495530
27.27999983,1.02923700
27.31999983,1.07409900
27.35999983,1.16367100
27.39999983,1.20838000
27.43999983,1.25324300
27.47999983,1.34281400
27.51999983,1.34281400
27.55999983,1.38752400
27.59999983,1.38752400
27.63999983,1.34281400
27.67999983,1.29795200
27.71999983,1.20838000
27.75999983,1.16367100
27.79999983,1.02923700
27.83999983,0.93966490
27.87999983,0.80538340
27.91999983,0.71581160
27.95999983,0.53666800
27.99999983,0.44709620
28.03999983,0.31281470
28.07999983,0.17838070
28.11999983,0.08880886
28.15999983,-0.00061037
28.19999983,-0.13489180
28.23999983,-0.22446360
28.27999983,-0.31403550
28.31999983,-0.35874510
28.35999983,-0.44831690
28.39999983,-0.53788870
28.43999983,-0.58275090
28.47999983,-0.67232280
28.51999983,-0.76174200
28.55999983,-0.80660420
28.59999983,-0.89617600
28.63999983,-0.94088570
28.67999983,-1.03045700
28.71999983,-1.07532000
28.75999983,-1.12002900
28.79999982,-1.20960100
28.83999982,-1.20960100
28.87999982,-1.25446300
28.91999982,-1.25446300
28.95999982,-1.25446300
28.99999982,-1.25446300
29.03999982,-1.16489100
29.07999982,-1.16489100
29.11999982,-1.07532000
29.15999982,-0.98574790
29.19999982,-0.89617600
29.23999982,-0.76174200
29.27999982,-0.67232280
29.31999982,-0.53788870
29.35999982,-0.35874510
29.39999982,-0.26917330
29.43999982,-0.13489180
29.47999982,-0.00061037
29.51999982,0.08880886
29.55999982,0.17838070
29.59999982,0.31281470
29.63999982,0.40238650
29.67999982,0.53666800
29.71999982,0.58153020
29.75999982,0.67110200
29.79999982,0.71581160
29.83999982,0.80538340
29.87999982,0.89495530
29.91999982,0.98452710
29.95999982,1.07409900
29.99999982,1.16367100
30.03999982,1.20838000
30.07999982,1.25324300
30.11999982,1.34281400
30.15999982,1.34281400
30.19999982,1.38752400
30.23999982,1.34281400
30.27999982,1.34281400
30.31999982,1.29795200
30.35999982,1.25324300
30.39999982,1.16367100
30.43999982,1.07409900
30.47999981,0.93966490
30.51999981,0.85009310
30.55999981,0.71581160
30.59999981,0.58153020
30.63999981,0.49195840
30.67999981,0.35752430
30.71999981,0.17838070
30.75999981,0.08880886
30.79999981,-0.00061037
30.83999981,-0.09002960
30.87999981,-0.22446360
30.91999981,-0.31403550
30.95999981,-0.35874510
30.99999981,-0.44831690
31.03999981,-0.53788870
31.07999981,-0.58275090
31.11999981,-0.67232280
31.15999981,-0.71703240
31.19999981,-0.80660420
31.23999981,-0.89617600
31.27999981,-0.94088570
31.31999981,-0.98574790
31.35999981,-1.07532000
31.39999981,-1.12002900
31.43999981,-1.16489100
31.47999981,-1.20960100
31.51999981,-1.25446300
31.55999981,-1.25446300
31.59999981,-1.25446300
31.63999981,-1.25446300
31.67999981,-1.20960100
31.71999981,-1.16489100
31.75999981,-1.07532000
31.79999981,-0.98574790
31.83999981,-0.89617600
31.87999981,-0.80660420
31.91999981,-0.67232280
31.95999981,-0.53788870
31.99999981,-0.40360730
32.03999981,-0.31403550
32.07999981,-0.17960140
32.11999980,-0.04531999
32.15999980,0.04409925
32.19999980,0.17838070
32.23999980,0.31281470
32.27999980,0.40238650
32.31999980,0.49195840
32.35999980,0.53666800
32.39999980,0.67110200
32.43999980,0.71581160
32.47999980,0.80538340
32.51999980,0.89495530
32.55999980,0.93966490
32.59999980,1.07409900
32.63999980,1.11880900
32.67999980,1.20838000
32.71999980,1.25324300
32.75999980,1.29795200
32.79999980,1.34281400
32.83999980,1.38752400
32.87999980,1.34281400
32.91999980,1.34281400
32.95999980,1.29795200
