Time	Channel A
(us)	(V)

0.00000000	-0.32514420
0.04000000	-0.39741200
0.08000000	-0.46967990
0.12000000	-0.56001470
0.16000000	-0.61415450
0.20000000	-0.68642230
0.24000000	-0.74062320
0.28000000	-0.81289100
0.32000000	-0.88515880
0.36000000	-0.95742670
0.40000000	-1.01162800
0.44000000	-1.08389500
0.48000000	-1.13809600
0.52000000	-1.19223600
0.56000000	-1.22837000
0.60000000	-1.26450400
0.64000000	-1.26450400
0.68000000	-1.26450400
0.72000000	-1.24643700
0.76000000	-1.21030300
0.80000000	-1.15616300
0.83999999	-1.10196200
0.87999999	-1.01162800
0.91999999	-0.90322580
0.95999999	-0.79482410
0.99999999	-0.66835530
1.03999999	-0.56001470
1.07999999	-0.43354590
1.11999999	-0.30707720
1.15999999	-0.16254160
1.19999999	-0.03607288
1.23999999	0.07220680
1.27999999	0.18060850
1.31999999	0.28901030
1.35999999	0.37934510
1.39999999	0.46967990
1.43999999	0.56001470
1.47999999	0.63222150
1.51999999	0.72255620
1.55999999	0.79482410
1.59999999	0.86709190
1.63999999	0.95742670
1.67999999	1.02969500
1.71999999	1.10196200
1.75999999	1.17416900
1.79999999	1.22837000
1.83999999	1.28257100
1.87999999	1.31870500
1.91999999	1.33677200
1.95999999	1.33677200
1.99999999	1.31870500
2.03999999	1.28257100
2.07999999	1.22837000
2.11999999	1.15616300
2.15999999	1.04776100
2.19999999	0.93935970
2.23999999	0.83095790
2.27999999	0.72255620
2.31999999	0.59608750
2.35999999	0.46967990
2.39999999	0.34321110
2.43999999	0.21674250
2.47999998	0.09027375
2.51999998	-0.01800592
2.55999998	-0.10834070
2.59999998	-0.21674250
2.63999998	-0.30707720
2.67999998	-0.37934510
2.71999998	-0.46967990
2.75999998	-0.52388070
2.79999998	-0.61415450
2.83999998	-0.66835530
2.87999998	-0.74062320
2.91999998	-0.81289100
2.95999998	-0.88515880
2.99999998	-0.93935970
3.03999998	-1.01162800
3.07999998	-1.08389500
3.11999998	-1.12002900
3.15999998	-1.17416900
3.19999998	-1.21030300
3.23999998	-1.24643700
3.27999998	-1.26450400
3.31999998	-1.26450400
3.35999998	-1.24643700
3.39999998	-1.22837000
3.43999998	-1.15616300
3.47999998	-1.10196200
3.51999998	-1.02969500
3.55999998	-0.93935970
3.59999998	-0.83095790
3.63999998	-0.70448930
3.67999998	-0.57808160
3.71999998	-0.45161290
3.75999998	-0.32514420
3.79999998	-0.19867550
3.83999998	-0.07220680
3.87999998	0.03607288
3.91999998	0.14447460
3.95999998	0.27094330
3.99999998	0.36127810
4.03999998	0.45161290
4.07999998	0.54194770
4.11999997	0.61415450
4.15999997	0.70448930
4.19999997	0.77675710
4.23999997	0.84902500
4.27999997	0.93935970
4.31999997	1.01162800
4.35999997	1.10196200
4.39999997	1.15616300
4.43999997	1.22837000
4.47999997	1.28257100
4.51999997	1.31870500
4.55999997	1.35483900
4.59999997	1.33677200
4.63999997	1.31870500
4.67999997	1.30063800
4.71999997	1.22837000
4.75999997	1.15616300
4.79999997	1.08389500
4.83999997	0.97549360
4.87999997	0.86709190
4.91999997	0.74062320
4.95999997	0.63222150
4.99999997	0.48774680
5.03999997	0.36127810
5.07999997	0.23480940
5.11999997	0.10834070
5.15999997	0.00000000
5.19999997	-0.10834070
5.23999997	-0.19867550
5.27999997	-0.28901030
5.31999997	-0.36127810
5.35999997	-0.43354590
5.39999997	-0.52388070
5.43999997	-0.59608750
5.47999997	-0.65028840
5.51999997	-0.72255620
5.55999997	-0.79482410
5.59999997	-0.86709190
5.63999997	-0.93935970
5.67999997	-0.99356060
5.71999997	-1.06582800
5.75999996	-1.12002900
5.79999996	-1.17416900
5.83999996	-1.22837000
5.87999996	-1.24643700
5.91999996	-1.28257100
5.95999996	-1.26450400
5.99999996	-1.26450400
6.03999996	-1.24643700
6.07999996	-1.19223600
6.11999996	-1.13809600
6.15999996	-1.02969500
6.19999996	-0.93935970
6.23999996	-0.84902500
6.27999996	-0.72255620
6.31999996	-0.59608750
6.35999996	-0.46967990
6.39999996	-0.34321110
6.43999996	-0.21674250
6.47999996	-0.09027375
6.51999996	0.01800592
6.55999996	0.14447460
6.59999996	0.25287640
6.63999996	0.34321110
6.67999996	0.43354590
6.71999996	0.50581380
6.75999996	0.57808160
6.79999996	0.66835530
6.83999996	0.75869010
6.87999996	0.83095790
6.91999996	0.92129280
6.95999996	0.99356060
6.99999996	1.08389500
7.03999996	1.15616300
7.07999996	1.22837000
7.11999996	1.28257100
7.15999996	1.30063800
7.19999996	1.33677200
7.23999996	1.35483900
7.27999996	1.33677200
7.31999996	1.30063800
7.35999996	1.24643700
7.39999996	1.19223600
7.43999995	1.08389500
7.47999995	1.01162800
7.51999995	0.90322580
7.55999995	0.77675710
7.59999995	0.65028840
7.63999995	0.50581380
7.67999995	0.37934510
7.71999995	0.25287640
7.75999995	0.14447460
7.79999995	0.01800592
7.83999995	-0.07220680
7.87999995	-0.16254160
7.91999995	-0.27094330
7.95999995	-0.36127810
7.99999995	-0.43354590
8.03999995	-0.50581380
8.07999995	-0.57808160
8.11999995	-0.65028840
8.15999995	-0.70448930
8.19999995	-0.77675710
8.23999995	-0.84902500
8.27999995	-0.90322580
8.31999995	-0.97549360
8.35999995	-1.04776100
8.39999995	-1.10196200
8.43999995	-1.15616300
8.47999995	-1.21030300
8.51999995	-1.24643700
8.55999995	-1.26450400
8.59999995	-1.28257100
8.63999995	-1.26450400
8.67999995	-1.24643700
8.71999995	-1.21030300
8.75999995	-1.15616300
8.79999995	-1.06582800
8.83999995	-0.97549360
8.87999995	-0.86709190
8.91999995	-0.75869010
8.95999995	-0.63222150
8.99999995	-0.50581380
9.03999995	-0.37934510
9.07999994	-0.23480940
9.11999994	-0.12640770
9.15999994	0.00000000
9.19999994	0.12640770
9.23999994	0.21674250
9.27999994	0.32514420
9.31999994	0.41547900
9.35999994	0.50581380
9.39999994	0.57808160
9.43999994	0.65028840
9.47999994	0.72255620
9.51999994	0.81289100
9.55999994	0.90322580
9.59999994	0.97549360
9.63999994	1.06582800
9.67999994	1.13809600
9.71999994	1.21030300
9.75999994	1.26450400
9.79999994	1.30063800
9.83999994	1.33677200
9.87999994	1.35483900
9.91999994	1.33677200
9.95999994	1.30063800
9.99999994	1.26450400
10.03999994	1.21030300
10.07999994	1.12002900
10.11999994	1.02969500
10.15999994	0.92129280
10.19999994	0.79482410
10.23999994	0.66835530
10.27999994	0.54194770
10.31999994	0.43354590
10.35999994	0.28901030
10.39999994	0.16254160
10.43999994	0.05413984
10.47999994	-0.07220680
10.51999994	-0.16254160
10.55999994	-0.25287640
10.59999994	-0.32514420
10.63999994	-0.41547900
10.67999994	-0.48774680
10.71999993	-0.56001470
10.75999993	-0.61415450
10.79999993	-0.70448930
10.83999993	-0.75869010
10.87999993	-0.83095790
10.91999993	-0.92129280
10.95999993	-0.97549360
10.99999993	-1.02969500
11.03999993	-1.10196200
11.07999993	-1.15616300
11.11999993	-1.21030300
11.15999993	-1.24643700
11.19999993	-1.26450400
11.23999993	-1.26450400
11.27999993	-1.26450400
11.31999993	-1.24643700
11.35999993	-1.21030300
11.39999993	-1.15616300
11.43999993	-1.08389500
11.47999993	-0.99356060
11.51999993	-0.88515880
11.55999993	-0.77675710
11.59999993	-0.66835530
11.63999993	-0.54194770
11.67999993	-0.39741200
11.71999993	-0.28901030
11.75999993	-0.14447460
11.79999993	-0.03607288
11.83999993	0.07220680
11.87999993	0.19867550
11.91999993	0.28901030
11.95999993	0.39741200
11.99999993	0.48774680
12.03999993	0.57808160
12.07999993	0.65028840
12.11999993	0.72255620
12.15999993	0.81289100
12.19999993	0.88515880
12.23999993	0.97549360
12.27999993	1.06582800
12.31999993	1.13809600
12.35999992	1.19223600
12.39999992	1.26450400
12.43999992	1.30063800
12.47999992	1.31870500
12.51999992	1.35483900
12.55999992	1.33677200
12.59999992	1.31870500
12.63999992	1.28257100
12.67999992	1.21030300
12.71999992	1.13809600
12.75999992	1.04776100
12.79999992	0.93935970
12.83999992	0.83095790
12.87999992	0.70448930
12.91999992	0.57808160
12.95999992	0.45161290
12.99999992	0.32514420
13.03999992	0.19867550
13.07999992	0.07220680
13.11999992	-0.01800592
13.15999992	-0.12640770
13.19999992	-0.23480940
13.23999992	-0.30707720
13.27999992	-0.39741200
13.31999992	-0.46967990
13.35999992	-0.56001470
13.39999992	-0.61415450
13.43999992	-0.68642230
13.47999992	-0.75869010
13.51999992	-0.83095790
13.55999992	-0.88515880
13.59999992	-0.95742670
13.63999992	-1.02969500
13.67999992	-1.10196200
13.71999992	-1.15616300
13.75999992	-1.19223600
13.79999992	-1.22837000
13.83999992	-1.26450400
13.87999992	-1.26450400
13.91999992	-1.26450400
13.95999992	-1.24643700
13.99999991	-1.22837000
14.03999991	-1.15616300
14.07999991	-1.10196200
14.11999991	-1.01162800
14.15999991	-0.92129280
14.19999991	-0.79482410
14.23999991	-0.68642230
14.27999991	-0.56001470
14.31999991	-0.43354590
14.35999991	-0.30707720
14.39999991	-0.18060850
14.43999991	-0.05413984
14.47999991	0.07220680
14.51999991	0.18060850
14.55999991	0.28901030
14.59999991	0.36127810
14.63999991	0.46967990
14.67999991	0.56001470
14.71999991	0.63222150
14.75999991	0.72255620
14.79999991	0.79482410
14.83999991	0.88515880
14.87999991	0.95742670
14.91999991	1.04776100
14.95999991	1.12002900
14.99999991	1.19223600
15.03999991	1.24643700
15.07999991	1.30063800
15.11999991	1.33677200
15.15999991	1.35483900
15.19999991	1.35483900
15.23999991	1.33677200
15.27999991	1.28257100
15.31999991	1.22837000
15.35999991	1.15616300
15.39999991	1.06582800
15.43999991	0.95742670
15.47999991	0.84902500
15.51999991	0.72255620
15.55999991	0.59608750
15.59999991	0.46967990
15.63999990	0.34321110
15.67999990	0.21674250
15.71999990	0.10834070
15.75999990	-0.01800592
15.79999990	-0.10834070
15.83999990	-0.21674250
15.87999990	-0.30707720
15.91999990	-0.39741200
15.95999990	-0.45161290
15.99999990	-0.52388070
16.03999990	-0.59608750
16.07999990	-0.66835530
16.11999990	-0.74062320
16.15999990	-0.81289100
16.19999990	-0.86709190
16.23999990	-0.95742670
16.27999990	-1.01162800
16.31999990	-1.08389500
16.35999990	-1.13809600
16.39999990	-1.17416900
16.43999990	-1.22837000
16.47999990	-1.24643700
16.51999990	-1.28257100
16.55999990	-1.28257100
16.59999990	-1.26450400
16.63999990	-1.22837000
16.67999990	-1.19223600
16.71999990	-1.12002900
16.75999990	-1.02969500
16.79999990	-0.93935970
16.83999990	-0.83095790
16.87999990	-0.72255620
16.91999990	-0.57808160
16.95999990	-0.45161290
16.99999990	-0.32514420
17.03999990	-0.19867550
17.07999990	-0.07220680
17.11999990	0.03607288
17.15999990	0.14447460
17.19999990	0.27094330
17.23999990	0.36127810
17.27999989	0.45161290
17.31999989	0.54194770
17.35999989	0.61415450
17.39999989	0.70448930
17.43999989	0.77675710
17.47999989	0.84902500
17.51999989	0.93935970
17.55999989	1.01162800
17.59999989	1.10196200
17.63999989	1.15616300
17.67999989	1.22837000
17.71999989	1.30063800
17.75999989	1.31870500
17.79999989	1.35483900
17.83999989	1.35483900
17.87999989	1.33677200
17.91999989	1.30063800
17.95999989	1.24643700
17.99999989	1.17416900
18.03999989	1.08389500
18.07999989	0.99356060
18.11999989	0.86709190
18.15999989	0.75869010
18.19999989	0.63222150
18.23999989	0.50581380
18.27999989	0.36127810
18.31999989	0.25287640
18.35999989	0.12640770
18.39999989	0.00000000
18.43999989	-0.09027375
18.47999989	-0.19867550
18.51999989	-0.28901030
18.55999989	-0.36127810
18.59999989	-0.43354590
18.63999989	-0.50581380
18.67999989	-0.57808160
18.71999989	-0.65028840
18.75999989	-0.72255620
18.79999989	-0.79482410
18.83999989	-0.86709190
18.87999989	-0.93935970
18.91999989	-1.01162800
18.95999988	-1.06582800
18.99999988	-1.12002900
19.03999988	-1.17416900
19.07999988	-1.22837000
19.11999988	-1.24643700
19.15999988	-1.28257100
19.19999988	-1.28257100
19.23999988	-1.26450400
19.27999988	-1.24643700
19.31999988	-1.19223600
19.35999988	-1.12002900
19.39999988	-1.04776100
19.43999988	-0.95742670
19.47999988	-0.84902500
19.51999988	-0.72255620
19.55999988	-0.61415450
19.59999988	-0.48774680
19.63999988	-0.36127810
19.67999988	-0.23480940
19.71999988	-0.10834070
19.75999988	0.01800592
19.79999988	0.14447460
19.83999988	0.23480940
19.87999988	0.34321110
19.91999988	0.43354590
19.95999988	0.50581380
19.99999988	0.59608750
20.03999988	0.68642230
20.07999988	0.75869010
20.11999988	0.83095790
20.15999988	0.92129280
20.19999988	1.01162800
20.23999988	1.08389500
20.27999988	1.15616300
20.31999988	1.21030300
20.35999988	1.26450400
20.39999988	1.31870500
20.43999988	1.35483900
20.47999988	1.35483900
20.51999988	1.33677200
20.55999988	1.31870500
20.59999987	1.26450400
20.63999987	1.19223600
20.67999987	1.12002900
20.71999987	1.01162800
20.75999987	0.88515880
20.79999987	0.75869010
20.83999987	0.65028840
20.87999987	0.52388070
20.91999987	0.39741200
20.95999987	0.27094330
20.99999987	0.14447460
21.03999987	0.03607288
21.07999987	-0.07220680
21.11999987	-0.16254160
21.15999987	-0.25287640
21.19999987	-0.34321110
21.23999987	-0.41547900
21.27999987	-0.50581380
21.31999987	-0.57808160
21.35999987	-0.63222150
21.39999987	-0.72255620
21.43999987	-0.79482410
21.47999987	-0.84902500
21.51999987	-0.90322580
21.55999987	-0.99356060
21.59999987	-1.06582800
21.63999987	-1.12002900
21.67999987	-1.17416900
21.71999987	-1.21030300
21.75999987	-1.24643700
21.79999987	-1.28257100
21.83999987	-1.28257100
21.87999987	-1.26450400
21.91999987	-1.24643700
21.95999987	-1.19223600
21.99999987	-1.15616300
22.03999987	-1.06582800
22.07999987	-0.97549360
22.11999987	-0.88515880
22.15999987	-0.75869010
22.19999987	-0.63222150
22.23999986	-0.50581380
22.27999986	-0.37934510
22.31999986	-0.25287640
22.35999986	-0.12640770
22.39999986	0.00000000
22.43999986	0.10834070
22.47999986	0.21674250
22.51999986	0.30707720
22.55999986	0.41547900
22.59999986	0.50581380
22.63999986	0.57808160
22.67999986	0.65028840
22.71999986	0.74062320
22.75999986	0.81289100
22.79999986	0.90322580
22.83999986	0.99356060
22.87999986	1.06582800
22.91999986	1.13809600
22.95999986	1.21030300
22.99999986	1.26450400
23.03999986	1.31870500
23.07999986	1.35483900
23.11999986	1.35483900
23.15999986	1.35483900
23.19999986	1.31870500
23.23999986	1.28257100
23.27999986	1.21030300
23.31999986	1.12002900
23.35999986	1.02969500
23.39999986	0.92129280
23.43999986	0.79482410
23.47999986	0.68642230
23.51999986	0.54194770
23.55999986	0.41547900
23.59999986	0.28901030
23.63999986	0.16254160
23.67999986	0.05413984
23.71999986	-0.05413984
23.75999986	-0.14447460
23.79999986	-0.25287640
23.83999986	-0.32514420
23.87999985	-0.39741200
23.91999985	-0.48774680
23.95999985	-0.56001470
23.99999985	-0.61415450
24.03999985	-0.68642230
24.07999985	-0.75869010
24.11999985	-0.83095790
24.15999985	-0.90322580
24.19999985	-0.97549360
24.23999985	-1.02969500
24.27999985	-1.10196200
24.31999985	-1.15616300
24.35999985	-1.19223600
24.39999985	-1.24643700
24.43999985	-1.26450400
24.47999985	-1.28257100
24.51999985	-1.26450400
24.55999985	-1.24643700
24.59999985	-1.22837000
24.63999985	-1.15616300
24.67999985	-1.08389500
24.71999985	-0.99356060
24.75999985	-0.90322580
24.79999985	-0.77675710
24.83999985	-0.65028840
24.87999985	-0.52388070
24.91999985	-0.39741200
24.95999985	-0.27094330
24.99999985	-0.14447460
25.03999985	-0.01800592
25.07999985	0.09027375
25.11999985	0.19867550
25.15999985	0.30707720
25.19999985	0.39741200
25.23999985	0.48774680
25.27999985	0.56001470
25.31999985	0.65028840
25.35999985	0.72255620
25.39999985	0.79482410
25.43999985	0.88515880
25.47999985	0.95742670
25.51999984	1.04776100
25.55999984	1.12002900
25.59999984	1.19223600
25.63999984	1.24643700
25.67999984	1.30063800
25.71999984	1.30063800
25.75999984	1.33677200
25.79999984	1.35483900
25.83999984	1.33677200
25.87999984	1.26450400
25.91999984	1.22837000
25.95999984	1.13809600
25.99999984	1.04776100
26.03999984	0.95742670
26.07999984	0.83095790
26.11999984	0.70448930
26.15999984	0.57808160
26.19999984	0.45161290
26.23999984	0.32514420
26.27999984	0.19867550
26.31999984	0.07220680
26.35999984	-0.03607288
26.39999984	-0.14447460
26.43999984	-0.23480940
26.47999984	-0.30707720
26.51999984	-0.39741200
26.55999984	-0.46967990
26.59999984	-0.56001470
26.63999984	-0.61415450
26.67999984	-0.66835530
26.71999984	-0.74062320
26.75999984	-0.81289100
26.79999984	-0.88515880
26.83999984	-0.95742670
26.87999984	-1.01162800
26.91999984	-1.08389500
26.95999984	-1.13809600
26.99999984	-1.17416900
27.03999984	-1.22837000
27.07999984	-1.26450400
27.11999984	-1.26450400
27.15999983	-1.26450400
27.19999983	-1.24643700
27.23999983	-1.22837000
27.27999983	-1.17416900
27.31999983	-1.10196200
27.35999983	-1.01162800
27.39999983	-0.92129280
27.43999983	-0.81289100
27.47999983	-0.68642230
27.51999983	-0.56001470
27.55999983	-0.43354590
27.59999983	-0.30707720
27.63999983	-0.18060850
27.67999983	-0.05413984
27.71999983	0.07220680
27.75999983	0.18060850
27.79999983	0.28901030
27.83999983	0.37934510
27.87999983	0.46967990
27.91999983	0.56001470
27.95999983	0.63222150
27.99999983	0.72255620
28.03999983	0.79482410
28.07999983	0.86709190
28.11999983	0.93935970
28.15999983	1.02969500
28.19999983	1.10196200
28.23999983	1.17416900
28.27999983	1.22837000
28.31999983	1.30063800
28.35999983	1.33677200
28.39999983	1.35483900
28.43999983	1.33677200
28.47999983	1.31870500
28.51999983	1.30063800
28.55999983	1.22837000
28.59999983	1.15616300
28.63999983	1.06582800
28.67999983	0.95742670
28.71999983	0.86709190
28.75999983	0.72255620
28.79999982	0.59608750
28.83999982	0.48774680
28.87999982	0.34321110
28.91999982	0.21674250
28.95999982	0.10834070
28.99999982	-0.01800592
29.03999982	-0.10834070
29.07999982	-0.21674250
29.11999982	-0.30707720
29.15999982	-0.37934510
29.19999982	-0.45161290
29.23999982	-0.54194770
29.27999982	-0.59608750
29.31999982	-0.66835530
29.35999982	-0.74062320
29.39999982	-0.79482410
29.43999982	-0.86709190
29.47999982	-0.93935970
29.51999982	-1.01162800
29.55999982	-1.06582800
29.59999982	-1.13809600
29.63999982	-1.17416900
29.67999982	-1.22837000
29.71999982	-1.26450400
29.75999982	-1.26450400
29.79999982	-1.26450400
29.83999982	-1.26450400
29.87999982	-1.22837000
29.91999982	-1.17416900
29.95999982	-1.12002900
29.99999982	-1.02969500
30.03999982	-0.93935970
30.07999982	-0.83095790
30.11999982	-0.70448930
30.15999982	-0.59608750
30.19999982	-0.45161290
30.23999982	-0.32514420
30.27999982	-0.19867550
30.31999982	-0.07220680
30.35999982	0.03607288
30.39999982	0.14447460
30.43999982	0.27094330
30.47999981	0.36127810
30.51999981	0.45161290
30.55999981	0.54194770
30.59999981	0.59608750
30.63999981	0.68642230
30.67999981	0.77675710
30.71999981	0.84902500
30.75999981	0.93935970
30.79999981	1.01162800
30.83999981	1.08389500
30.87999981	1.15616300
30.91999981	1.22837000
30.95999981	1.28257100
30.99999981	1.31870500
31.03999981	1.35483900
31.07999981	1.35483900
31.11999981	1.33677200
31.15999981	1.30063800
31.19999981	1.24643700
31.23999981	1.17416900
31.27999981	1.08389500
31.31999981	0.99356060
31.35999981	0.86709190
31.39999981	0.75869010
31.43999981	0.61415450
31.47999981	0.50581380
31.51999981	0.36127810
31.55999981	0.25287640
31.59999981	0.12640770
31.63999981	0.00000000
31.67999981	-0.09027375
31.71999981	-0.18060850
31.75999981	-0.28901030
31.79999981	-0.36127810
31.83999981	-0.43354590
31.87999981	-0.50581380
31.91999981	-0.57808160
31.95999981	-0.65028840
31.99999981	-0.72255620
32.03999981	-0.79482410
32.07999981	-0.84902500
32.11999980	-0.93935970
32.15999980	-0.99356060
32.19999980	-1.06582800
32.23999980	-1.12002900
32.27999980	-1.17416900
32.31999980	-1.22837000
32.35999980	-1.24643700
32.39999980	-1.26450400
32.43999980	-1.28257100
32.47999980	-1.26450400
32.51999980	-1.24643700
32.55999980	-1.19223600
32.59999980	-1.13809600
32.63999980	-1.04776100
32.67999980	-0.93935970
32.71999980	-0.84902500
32.75999980	-0.72255620
32.79999980	-0.61415450
32.83999980	-0.48774680
32.87999980	-0.36127810
32.91999980	-0.23480940
