Time,Channel A
(us),(V)

0.00000000,-0.83095790
0.04000000,-0.90322580
0.08000000,-0.97549360
0.12000000,-1.02969500
0.16000000,-1.10196200
0.20000000,-1.15616300
0.24000000,-1.21030300
0.28000000,-1.22837000
0.32000000,-1.26450400
0.36000000,-1.26450400
0.40000000,-1.26450400
0.44000000,-1.24643700
0.48000000,-1.21030300
0.52000000,-1.13809600
0.56000000,-1.08389500
0.60000000,-0.99356060
0.64000000,-0.88515880
0.68000000,-0.77675710
0.72000000,-0.65028840
0.76000000,-0.52388070
0.80000000,-0.39741200
0.83999999,-0.27094330
0.87999999,-0.14447460
0.91999999,-0.01800592
0.95999999,0.10834070
0.99999999,0.21674250
1.03999999,0.30707720
1.07999999,0.41547900
1.11999999,0.50581380
1.15999999,0.57808160
1.19999999,0.65028840
1.23999999,0.74062320
1.27999999,0.81289100
1.31999999,0.90322580
1.35999999,0.97549360
1.39999999,1.06582800
1.43999999,1.13809600
1.47999999,1.19223600
1.51999999,1.26450400
1.55999999,1.30063800
1.59999999,1.31870500
1.63999999,1.33677200
1.67999999,1.33677200
1.71999999,1.31870500
1.75999999,1.28257100
1.79999999,1.21030300
1.83999999,1.13809600
1.87999999,1.02969500
1.91999999,0.92129280
1.95999999,0.79482410
1.99999999,0.70448930
2.03999999,0.56001470
2.07999999,0.43354590
2.11999999,0.30707720
2.15999999,0.18060850
2.19999999,0.07220680
2.23999999,-0.03607288
2.27999999,-0.14447460
2.31999999,-0.23480940
2.35999999,-0.32514420
2.39999999,-0.39741200
2.43999999,-0.46967990
2.47999998,-0.56001470
2.51999998,-0.61415450
2.55999998,-0.68642230
2.59999998,-0.75869010
2.63999998,-0.83095790
2.67999998,-0.90322580
2.71999998,-0.97549360
2.75999998,-1.02969500
2.79999998,-1.10196200
2.83999998,-1.15616300
2.87999998,-1.19223600
2.91999998,-1.22837000
2.95999998,-1.26450400
2.99999998,-1.26450400
3.03999998,-1.26450400
3.07999998,-1.24643700
3.11999998,-1.19223600
3.15999998,-1.15616300
3.19999998,-1.08389500
3.23999998,-0.99356060
3.27999998,-0.88515880
3.31999998,-0.79482410
3.35999998,-0.68642230
3.39999998,-0.54194770
3.43999998,-0.43354590
3.47999998,-0.28901030
3.51999998,-0.16254160
3.55999998,-0.03607288
3.59999998,0.07220680
3.63999998,0.18060850
3.67999998,0.28901030
3.71999998,0.37934510
3.75999998,0.46967990
3.79999998,0.56001470
3.83999998,0.63222150
3.87999998,0.72255620
3.91999998,0.79482410
3.95999998,0.88515880
3.99999998,0.97549360
4.03999998,1.04776100
4.07999998,1.12002900
4.11999997,1.19223600
4.15999997,1.26450400
4.19999997,1.30063800
4.23999997,1.33677200
4.27999997,1.33677200
4.31999997,1.35483900
4.35999997,1.31870500
4.39999997,1.28257100
4.43999997,1.22837000
4.47999997,1.13809600
4.51999997,1.06582800
4.55999997,0.93935970
4.59999997,0.83095790
4.63999997,0.70448930
4.67999997,0.57808160
4.71999997,0.46967990
4.75999997,0.34321110
4.79999997,0.19867550
4.83999997,0.09027375
4.87999997,-0.01800592
4.91999997,-0.12640770
4.95999997,-0.21674250
4.99999997,-0.30707720
5.03999997,-0.37934510
5.07999997,-0.45161290
5.11999997,-0.52388070
5.15999997,-0.59608750
5.19999997,-0.66835530
5.23999997,-0.74062320
5.27999997,-0.81289100
5.31999997,-0.88515880
5.35999997,-0.95742670
5.39999997,-1.02969500
5.43999997,-1.08389500
5.47999997,-1.13809600
5.51999997,-1.19223600
5.55999997,-1.22837000
5.59999997,-1.24643700
5.63999997,-1.26450400
5.67999997,-1.28257100
5.71999997,-1.24643700
5.75999996,-1.21030300
5.79999996,-1.17416900
5.83999996,-1.10196200
5.87999996,-1.01162800
5.91999996,-0.92129280
5.95999996,-0.81289100
5.99999996,-0.68642230
6.03999996,-0.57808160
6.07999996,-0.45161290
6.11999996,-0.30707720
6.15999996,-0.18060850
6.19999996,-0.07220680
6.23999996,0.05413984
6.27999996,0.16254160
6.31999996,0.27094330
6.35999996,0.36127810
6.39999996,0.45161290
6.43999996,0.54194770
6.47999996,0.61415450
6.51999996,0.70448930
6.55999996,0.77675710
6.59999996,0.86709190
6.63999996,0.93935970
6.67999996,1.02969500
6.71999996,1.10196200
6.75999996,1.15616300
6.79999996,1.22837000
6.83999996,1.28257100
6.87999996,1.31870500
6.91999996,1.33677200
6.95999996,1.33677200
6.99999996,1.31870500
7.03999996,1.28257100
7.07999996,1.22837000
7.11999996,1.15616300
7.15999996,1.08389500
7.19999996,0.97549360
7.23999996,0.86709190
7.27999996,0.74062320
7.31999996,0.61415450
7.35999996,0.48774680
7.39999996,0.36127810
7.43999995,0.23480940
7.47999995,0.10834070
7.51999995,0.00000000
7.55999995,-0.10834070
7.59999995,-0.19867550
7.63999995,-0.28901030
7.67999995,-0.37934510
7.71999995,-0.45161290
7.75999995,-0.52388070
7.79999995,-0.59608750
7.83999995,-0.65028840
7.87999995,-0.72255620
7.91999995,-0.79482410
7.95999995,-0.86709190
7.99999995,-0.92129280
8.03999995,-0.99356060
8.07999995,-1.04776100
8.11999995,-1.12002900
8.15999995,-1.17416900
8.19999995,-1.22837000
8.23999995,-1.24643700
8.27999995,-1.26450400
8.31999995,-1.26450400
8.35999995,-1.26450400
8.39999995,-1.22837000
8.43999995,-1.17416900
8.47999995,-1.12002900
8.51999995,-1.02969500
8.55999995,-0.93935970
8.59999995,-0.84902500
8.63999995,-0.72255620
8.67999995,-0.59608750
8.71999995,-0.46967990
8.75999995,-0.34321110
8.79999995,-0.21674250
8.83999995,-0.09027375
8.87999995,0.03607288
8.91999995,0.14447460
8.95999995,0.25287640
8.99999995,0.36127810
9.03999995,0.45161290
9.07999994,0.52388070
9.11999994,0.59608750
9.15999994,0.68642230
9.19999994,0.75869010
9.23999994,0.84902500
9.27999994,0.92129280
9.31999994,1.01162800
9.35999994,1.08389500
9.39999994,1.15616300
9.43999994,1.22837000
9.47999994,1.28257100
9.51999994,1.31870500
9.55999994,1.33677200
9.59999994,1.35483900
9.63999994,1.33677200
9.67999994,1.30063800
9.71999994,1.24643700
9.75999994,1.17416900
9.79999994,1.08389500
9.83999994,1.01162800
9.87999994,0.88515880
9.91999994,0.77675710
9.95999994,0.65028840
9.99999994,0.50581380
10.03999994,0.37934510
10.07999994,0.25287640
10.11999994,0.14447460
10.15999994,0.01800592
10.19999994,-0.09027375
10.23999994,-0.18060850
10.27999994,-0.27094330
10.31999994,-0.36127810
10.35999994,-0.43354590
10.39999994,-0.50581380
10.43999994,-0.57808160
10.47999994,-0.63222150
10.51999994,-0.72255620
10.55999994,-0.77675710
10.59999994,-0.83095790
10.63999994,-0.90322580
10.67999994,-0.97549360
10.71999993,-1.04776100
10.75999993,-1.12002900
10.79999993,-1.15616300
10.83999993,-1.21030300
10.87999993,-1.24643700
10.91999993,-1.24643700
10.95999993,-1.26450400
10.99999993,-1.26450400
11.03999993,-1.22837000
11.07999993,-1.19223600
11.11999993,-1.13809600
11.15999993,-1.04776100
11.19999993,-0.95742670
11.23999993,-0.86709190
11.27999993,-0.74062320
11.31999993,-0.61415450
11.35999993,-0.50581380
11.39999993,-0.37934510
11.43999993,-0.23480940
11.47999993,-0.10834070
11.51999993,0.00000000
11.55999993,0.12640770
11.59999993,0.21674250
11.63999993,0.32514420
11.67999993,0.43354590
11.71999993,0.50581380
11.75999993,0.57808160
11.79999993,0.65028840
11.83999993,0.75869010
11.87999993,0.81289100
11.91999993,0.90322580
11.95999993,0.99356060
11.99999993,1.06582800
12.03999993,1.15616300
12.07999993,1.21030300
12.11999993,1.26450400
12.15999993,1.30063800
12.19999993,1.33677200
12.23999993,1.35483900
12.27999993,1.33677200
12.31999993,1.30063800
12.35999992,1.26450400
12.39999992,1.19223600
12.43999992,1.12002900
12.47999992,1.01162800
12.51999992,0.90322580
12.55999992,0.79482410
12.59999992,0.65028840
12.63999992,0.54194770
12.67999992,0.41547900
12.71999992,0.28901030
12.75999992,0.16254160
12.79999992,0.03607288
12.83999992,-0.07220680
12.87999992,-0.16254160
12.91999992,-0.23480940
12.95999992,-0.34321110
12.99999992,-0.41547900
13.03999992,-0.48774680
13.07999992,-0.56001470
13.11999992,-0.61415450
13.15999992,-0.68642230
13.19999992,-0.75869010
13.23999992,-0.83095790
13.27999992,-0.90322580
13.31999992,-0.97549360
13.35999992,-1.02969500
13.39999992,-1.10196200
13.43999992,-1.15616300
13.47999992,-1.21030300
13.51999992,-1.24643700
13.55999992,-1.26450400
13.59999992,-1.28257100
13.63999992,-1.26450400
13.67999992,-1.24643700
13.71999992,-1.21030300
13.75999992,-1.15616300
13.79999992,-1.08389500
13.83999992,-0.97549360
13.87999992,-0.88515880
13.91999992,-0.75869010
13.95999992,-0.65028840
13.99999991,-0.52388070
14.03999991,-0.39741200
14.07999991,-0.27094330
14.11999991,-0.14447460
14.15999991,-0.01800592
14.19999991,0.09027375
14.23999991,0.21674250
14.27999991,0.30707720
14.31999991,0.39741200
14.35999991,0.48774680
14.39999991,0.57808160
14.43999991,0.65028840
14.47999991,0.72255620
14.51999991,0.79482410
14.55999991,0.88515880
14.59999991,0.95742670
14.63999991,1.04776100
14.67999991,1.13809600
14.71999991,1.19223600
14.75999991,1.26450400
14.79999991,1.30063800
14.83999991,1.33677200
14.87999991,1.35483900
14.91999991,1.33677200
14.95999991,1.31870500
14.99999991,1.28257100
15.03999991,1.21030300
15.07999991,1.13809600
15.11999991,1.04776100
15.15999991,0.93935970
15.19999991,0.83095790
15.23999991,0.70448930
15.27999991,0.56001470
15.31999991,0.43354590
15.35999991,0.28901030
15.39999991,0.18060850
15.43999991,0.07220680
15.47999991,-0.03607288
15.51999991,-0.14447460
15.55999991,-0.23480940
15.59999991,-0.30707720
15.63999990,-0.39741200
15.67999990,-0.46967990
15.71999990,-0.54194770
15.75999990,-0.61415450
15.79999990,-0.68642230
15.83999990,-0.74062320
15.87999990,-0.81289100
15.91999990,-0.88515880
15.95999990,-0.95742670
15.99999990,-1.01162800
16.03999990,-1.08389500
16.07999990,-1.13809600
16.11999990,-1.19223600
16.15999990,-1.22837000
16.19999990,-1.26450400
16.23999990,-1.28257100
16.27999990,-1.28257100
16.31999990,-1.24643700
16.35999990,-1.22837000
16.39999990,-1.17416900
16.43999990,-1.10196200
16.47999990,-1.01162800
16.51999990,-0.90322580
16.55999990,-0.79482410
16.59999990,-0.68642230
16.63999990,-0.57808160
16.67999990,-0.43354590
16.71999990,-0.28901030
16.75999990,-0.16254160
16.79999990,-0.03607288
16.83999990,0.07220680
16.87999990,0.18060850
16.91999990,0.28901030
16.95999990,0.39741200
16.99999990,0.48774680
17.03999990,0.56001470
17.07999990,0.63222150
17.11999990,0.72255620
17.15999990,0.79482410
17.19999990,0.86709190
17.23999990,0.95742670
17.27999989,1.02969500
17.31999989,1.12002900
17.35999989,1.17416900
17.39999989,1.22837000
17.43999989,1.30063800
17.47999989,1.31870500
17.51999989,1.35483900
17.55999989,1.35483900
17.59999989,1.31870500
17.63999989,1.28257100
17.67999989,1.22837000
17.71999989,1.15616300
17.75999989,1.06582800
17.79999989,0.95742670
17.83999989,0.84902500
17.87999989,0.72255620
17.91999989,0.59608750
17.95999989,0.46967990
17.99999989,0.34321110
18.03999989,0.19867550
18.07999989,0.07220680
18.11999989,-0.01800592
18.15999989,-0.12640770
18.19999989,-0.21674250
18.23999989,-0.30707720
18.27999989,-0.39741200
18.31999989,-0.46967990
18.35999989,-0.54194770
18.39999989,-0.61415450
18.43999989,-0.66835530
18.47999989,-0.74062320
18.51999989,-0.81289100
18.55999989,-0.86709190
18.59999989,-0.93935970
18.63999989,-1.01162800
18.67999989,-1.08389500
18.71999989,-1.13809600
18.75999989,-1.17416900
18.79999989,-1.22837000
18.83999989,-1.24643700
18.87999989,-1.26450400
18.91999989,-1.26450400
18.95999988,-1.24643700
18.99999988,-1.22837000
19.03999988,-1.17416900
19.07999988,-1.12002900
19.11999988,-1.02969500
19.15999988,-0.93935970
19.19999988,-0.83095790
19.23999988,-0.70448930
19.27999988,-0.57808160
19.31999988,-0.45161290
19.35999988,-0.32514420
19.39999988,-0.19867550
19.43999988,-0.07220680
19.47999988,0.05413984
19.51999988,0.16254160
19.55999988,0.27094330
19.59999988,0.36127810
19.63999988,0.46967990
19.67999988,0.54194770
19.71999988,0.61415450
19.75999988,0.70448930
19.79999988,0.77675710
19.83999988,0.86709190
19.87999988,0.93935970
19.91999988,1.01162800
19.95999988,1.10196200
19.99999988,1.15616300
20.03999988,1.22837000
20.07999988,1.28257100
20.11999988,1.31870500
20.15999988,1.33677200
20.19999988,1.33677200
20.23999988,1.31870500
20.27999988,1.30063800
20.31999988,1.24643700
20.35999988,1.15616300
20.39999988,1.08389500
20.43999988,0.97549360
20.47999988,0.86709190
20.51999988,0.75869010
20.55999988,0.63222150
20.59999987,0.50581380
20.63999987,0.36127810
20.67999987,0.23480940
20.71999987,0.12640770
20.75999987,0.00000000
20.79999987,-0.09027375
20.83999987,-0.19867550
20.87999987,-0.28901030
20.91999987,-0.36127810
20.95999987,-0.45161290
20.99999987,-0.52388070
21.03999987,-0.59608750
21.07999987,-0.66835530
21.11999987,-0.72255620
21.15999987,-0.79482410
21.19999987,-0.86709190
21.23999987,-0.93935970
21.27999987,-1.01162800
21.31999987,-1.06582800
21.35999987,-1.12002900
21.39999987,-1.17416900
21.43999987,-1.21030300
21.47999987,-1.24643700
21.51999987,-1.26450400
21.55999987,-1.28257100
21.59999987,-1.28257100
21.63999987,-1.24643700
21.67999987,-1.19223600
21.71999987,-1.12002900
21.75999987,-1.04776100
21.79999987,-0.95742670
21.83999987,-0.84902500
21.87999987,-0.72255620
21.91999987,-0.61415450
21.95999987,-0.48774680
21.99999987,-0.36127810
22.03999987,-0.21674250
22.07999987,-0.09027375
22.11999987,0.01800592
22.15999987,0.14447460
22.19999987,0.25287640
22.23999986,0.34321110
22.27999986,0.43354590
22.31999986,0.52388070
22.35999986,0.59608750
22.39999986,0.68642230
22.43999986,0.75869010
22.47999986,0.84902500
22.51999986,0.92129280
22.55999986,1.01162800
22.59999986,1.08389500
22.63999986,1.15616300
22.67999986,1.22837000
22.71999986,1.28257100
22.75999986,1.31870500
22.79999986,1.33677200
22.83999986,1.33677200
22.87999986,1.33677200
22.91999986,1.30063800
22.95999986,1.26450400
22.99999986,1.19223600
23.03999986,1.10196200
23.07999986,1.01162800
23.11999986,0.90322580
23.15999986,0.77675710
23.19999986,0.65028840
23.23999986,0.52388070
23.27999986,0.39741200
23.31999986,0.27094330
23.35999986,0.14447460
23.39999986,0.03607288
23.43999986,-0.07220680
23.47999986,-0.16254160
23.51999986,-0.27094330
23.55999986,-0.36127810
23.59999986,-0.43354590
23.63999986,-0.50581380
23.67999986,-0.57808160
23.71999986,-0.65028840
23.75999986,-0.70448930
23.79999986,-0.77675710
23.83999986,-0.84902500
23.87999985,-0.90322580
23.91999985,-0.99356060
23.95999985,-1.04776100
23.99999985,-1.10196200
24.03999985,-1.15616300
24.07999985,-1.21030300
24.11999985,-1.24643700
24.15999985,-1.26450400
24.19999985,-1.26450400
24.23999985,-1.26450400
24.27999985,-1.24643700
24.31999985,-1.21030300
24.35999985,-1.15616300
24.39999985,-1.06582800
24.43999985,-0.97549360
24.47999985,-0.86709190
24.51999985,-0.75869010
24.55999985,-0.63222150
24.59999985,-0.50581380
24.63999985,-0.37934510
24.67999985,-0.25287640
24.71999985,-0.12640770
24.75999985,0.00000000
24.79999985,0.10834070
24.83999985,0.21674250
24.87999985,0.32514420
24.91999985,0.41547900
24.95999985,0.50581380
24.99999985,0.57808160
25.03999985,0.65028840
25.07999985,0.74062320
25.11999985,0.83095790
25.15999985,0.90322580
25.19999985,0.99356060
25.23999985,1.06582800
25.27999985,1.13809600
25.31999985,1.21030300
25.35999985,1.26450400
25.39999985,1.30063800
25.43999985,1.33677200
25.47999985,1.35483900
25.51999984,1.35483900
25.55999984,1.31870500
25.59999984,1.28257100
25.63999984,1.21030300
25.67999984,1.12002900
25.71999984,1.02969500
25.75999984,0.92129280
25.79999984,0.79482410
25.83999984,0.68642230
25.87999984,0.54194770
25.91999984,0.43354590
25.95999984,0.28901030
25.99999984,0.18060850
26.03999984,0.05413984
26.07999984,-0.05413984
26.11999984,-0.16254160
26.15999984,-0.25287640
26.19999984,-0.32514420
26.23999984,-0.41547900
26.27999984,-0.48774680
26.31999984,-0.56001470
26.35999984,-0.61415450
26.39999984,-0.70448930
26.43999984,-0.75869010
26.47999984,-0.83095790
26.51999984,-0.90322580
26.55999984,-0.97549360
26.59999984,-1.02969500
26.63999984,-1.10196200
26.67999984,-1.15616300
26.71999984,-1.21030300
26.75999984,-1.24643700
26.79999984,-1.26450400
26.83999984,-1.28257100
26.87999984,-1.28257100
26.91999984,-1.24643700
26.95999984,-1.22837000
26.99999984,-1.15616300
27.03999984,-1.08389500
27.07999984,-0.99356060
27.11999984,-0.88515880
27.15999983,-0.77675710
27.19999983,-0.65028840
27.23999983,-0.54194770
27.27999983,-0.41547900
27.31999983,-0.27094330
27.35999983,-0.14447460
27.39999983,-0.01800592
27.43999983,0.09027375
27.47999983,0.19867550
27.51999983,0.28901030
27.55999983,0.41547900
27.59999983,0.48774680
27.63999983,0.57808160
27.67999983,0.65028840
27.71999983,0.72255620
27.75999983,0.79482410
27.79999983,0.88515880
27.83999983,0.97549360
27.87999983,1.04776100
27.91999983,1.13809600
27.95999983,1.19223600
27.99999983,1.24643700
28.03999983,1.30063800
28.07999983,1.33677200
28.11999983,1.33677200
28.15999983,1.33677200
28.19999983,1.31870500
28.23999983,1.28257100
28.27999983,1.22837000
28.31999983,1.13809600
28.35999983,1.04776100
28.39999983,0.93935970
28.43999983,0.83095790
28.47999983,0.70448930
28.51999983,0.57808160
28.55999983,0.45161290
28.59999983,0.32514420
28.63999983,0.19867550
28.67999983,0.09027375
28.71999983,-0.03607288
28.75999983,-0.12640770
28.79999982,-0.23480940
28.83999982,-0.30707720
28.87999982,-0.39741200
28.91999982,-0.46967990
28.95999982,-0.54194770
28.99999982,-0.61415450
29.03999982,-0.68642230
29.07999982,-0.74062320
29.11999982,-0.83095790
29.15999982,-0.88515880
29.19999982,-0.95742670
29.23999982,-1.01162800
29.27999982,-1.08389500
29.31999982,-1.15616300
29.35999982,-1.17416900
29.39999982,-1.22837000
29.43999982,-1.24643700
29.47999982,-1.26450400
29.51999982,-1.26450400
29.55999982,-1.24643700
29.59999982,-1.21030300
29.63999982,-1.15616300
29.67999982,-1.10196200
29.71999982,-1.01162800
29.75999982,-0.92129280
29.79999982,-0.81289100
29.83999982,-0.68642230
29.87999982,-0.57808160
29.91999982,-0.45161290
29.95999982,-0.30707720
29.99999982,-0.18060850
30.03999982,-0.05413984
30.07999982,0.05413984
30.11999982,0.18060850
30.15999982,0.27094330
30.19999982,0.37934510
30.23999982,0.46967990
30.27999982,0.56001470
30.31999982,0.63222150
30.35999982,0.70448930
30.39999982,0.79482410
30.43999982,0.86709190
30.47999981,0.93935970
30.51999981,1.02969500
30.55999981,1.12002900
30.59999981,1.17416900
30.63999981,1.22837000
30.67999981,1.30063800
30.71999981,1.31870500
30.75999981,1.33677200
30.79999981,1.33677200
30.83999981,1.31870500
30.87999981,1.28257100
30.91999981,1.22837000
30.95999981,1.15616300
30.99999981,1.06582800
31.03999981,0.95742670
31.07999981,0.84902500
31.11999981,0.72255620
31.15999981,0.59608750
31.19999981,0.46967990
31.23999981,0.34321110
31.27999981,0.23480940
31.31999981,0.10834070
31.35999981,-0.01800592
31.39999981,-0.10834070
31.43999981,-0.21674250
31.47999981,-0.28901030
31.51999981,-0.37934510
31.55999981,-0.45161290
31.59999981,-0.52388070
31.63999981,-0.59608750
31.67999981,-0.66835530
31.71999981,-0.74062320
31.75999981,-0.79482410
31.79999981,-0.86709190
31.83999981,-0.93935970
31.87999981,-1.01162800
31.91999981,-1.06582800
31.95999981,-1.13809600
31.99999981,-1.17416900
32.03999981,-1.22837000
32.07999981,-1.24643700
32.11999980,-1.28257100
32.15999980,-1.26450400
32.19999980,-1.26450400
32.23999980,-1.22837000
32.27999980,-1.19223600
32.31999980,-1.12002900
32.35999980,-1.02969500
32.39999980,-0.93935970
32.43999980,-0.83095790
32.47999980,-0.72255620
32.51999980,-0.59608750
32.55999980,-0.45161290
32.59999980,-0.34321110
32.63999980,-0.19867550
32.67999980,-0.07220680
32.71999980,0.03607288
32.75999980,0.16254160
32.79999980,0.27094330
32.83999980,0.36127810
32.87999980,0.45161290
32.91999980,0.52388070
