Time	Channel A
(us)	(V)

0.00000000	1.21030300
0.04000000	1.26450400
0.08000000	1.30063800
0.12000000	1.33677200
0.16000000	1.35483900
0.20000000	1.33677200
0.24000000	1.30063800
0.28000000	1.26450400
0.32000000	1.19223600
0.36000000	1.12002900
0.40000000	1.01162800
0.44000000	0.92129280
0.48000000	0.79482410
0.52000000	0.66835530
0.56000000	0.54194770
0.60000000	0.41547900
0.64000000	0.28901030
0.68000000	0.16254160
0.72000000	0.05413984
0.76000000	-0.05413984
0.80000000	-0.14447460
0.83999999	-0.25287640
0.87999999	-0.32514420
0.91999999	-0.41547900
0.95999999	-0.50581380
0.99999999	-0.56001470
1.03999999	-0.63222150
1.07999999	-0.68642230
1.11999999	-0.77675710
1.15999999	-0.84902500
1.19999999	-0.90322580
1.23999999	-0.97549360
1.27999999	-1.04776100
1.31999999	-1.10196200
1.35999999	-1.15616300
1.39999999	-1.21030300
1.43999999	-1.24643700
1.47999999	-1.26450400
1.51999999	-1.28257100
1.55999999	-1.26450400
1.59999999	-1.24643700
1.63999999	-1.21030300
1.67999999	-1.15616300
1.71999999	-1.08389500
1.75999999	-0.99356060
1.79999999	-0.88515880
1.83999999	-0.77675710
1.87999999	-0.65028840
1.91999999	-0.52388070
1.95999999	-0.39741200
1.99999999	-0.27094330
2.03999999	-0.14447460
2.07999999	-0.01800592
2.11999999	0.09027375
2.15999999	0.19867550
2.19999999	0.28901030
2.23999999	0.39741200
2.27999999	0.48774680
2.31999999	0.57808160
2.35999999	0.65028840
2.39999999	0.72255620
2.43999999	0.79482410
2.47999998	0.86709190
2.51999998	0.95742670
2.55999998	1.04776100
2.59999998	1.12002900
2.63999998	1.19223600
2.67999998	1.24643700
2.71999998	1.30063800
2.75999998	1.31870500
2.79999998	1.33677200
2.83999998	1.33677200
2.87999998	1.31870500
2.91999998	1.28257100
2.95999998	1.21030300
2.99999998	1.15616300
3.03999998	1.06582800
3.07999998	0.93935970
3.11999998	0.83095790
3.15999998	0.70448930
3.19999998	0.57808160
3.23999998	0.43354590
3.27999998	0.30707720
3.31999998	0.19867550
3.35999998	0.07220680
3.39999998	-0.03607288
3.43999998	-0.14447460
3.47999998	-0.23480940
3.51999998	-0.32514420
3.55999998	-0.39741200
3.59999998	-0.48774680
3.63999998	-0.54194770
3.67999998	-0.61415450
3.71999998	-0.66835530
3.75999998	-0.74062320
3.79999998	-0.81289100
3.83999998	-0.88515880
3.87999998	-0.95742670
3.91999998	-1.01162800
3.95999998	-1.08389500
3.99999998	-1.13809600
4.03999998	-1.19223600
4.07999998	-1.22837000
4.11999997	-1.26450400
4.15999997	-1.28257100
4.19999997	-1.26450400
4.23999997	-1.24643700
4.27999997	-1.22837000
4.31999997	-1.17416900
4.35999997	-1.10196200
4.39999997	-1.01162800
4.43999997	-0.90322580
4.47999997	-0.79482410
4.51999997	-0.68642230
4.55999997	-0.56001470
4.59999997	-0.43354590
4.63999997	-0.28901030
4.67999997	-0.16254160
4.71999997	-0.03607288
4.75999997	0.07220680
4.79999997	0.18060850
4.83999997	0.28901030
4.87999997	0.37934510
4.91999997	0.46967990
4.95999997	0.56001470
4.99999997	0.63222150
5.03999997	0.70448930
5.07999997	0.77675710
5.11999997	0.86709190
5.15999997	0.93935970
5.19999997	1.02969500
5.23999997	1.10196200
5.27999997	1.17416900
5.31999997	1.22837000
5.35999997	1.28257100
5.39999997	1.31870500
5.43999997	1.35483900
5.47999997	1.33677200
5.51999997	1.31870500
5.55999997	1.30063800
5.59999997	1.22837000
5.63999997	1.15616300
5.67999997	1.06582800
5.71999997	0.97549360
5.75999996	0.84902500
5.79999996	0.72255620
5.83999996	0.61415450
5.87999996	0.46967990
5.91999996	0.34321110
5.95999996	0.21674250
5.99999996	0.09027375
6.03999996	-0.01800592
6.07999996	-0.10834070
6.11999996	-0.21674250
6.15999996	-0.30707720
6.19999996	-0.37934510
6.23999996	-0.45161290
6.27999996	-0.52388070
6.31999996	-0.59608750
6.35999996	-0.65028840
6.39999996	-0.72255620
6.43999996	-0.79482410
6.47999996	-0.86709190
6.51999996	-0.93935970
6.55999996	-0.99356060
6.59999996	-1.06582800
6.63999996	-1.12002900
6.67999996	-1.17416900
6.71999996	-1.21030300
6.75999996	-1.24643700
6.79999996	-1.26450400
6.83999996	-1.28257100
6.87999996	-1.26450400
6.91999996	-1.22837000
6.95999996	-1.19223600
6.99999996	-1.12002900
7.03999996	-1.02969500
7.07999996	-0.95742670
7.11999996	-0.83095790
7.15999996	-0.70448930
7.19999996	-0.59608750
7.23999996	-0.45161290
7.27999996	-0.32514420
7.31999996	-0.21674250
7.35999996	-0.07220680
7.39999996	0.03607288
7.43999995	0.14447460
7.47999995	0.25287640
7.51999995	0.36127810
7.55999995	0.45161290
7.59999995	0.54194770
7.63999995	0.61415450
7.67999995	0.68642230
7.71999995	0.77675710
7.75999995	0.84902500
7.79999995	0.93935970
7.83999995	1.01162800
7.87999995	1.10196200
7.91999995	1.15616300
7.95999995	1.22837000
7.99999995	1.28257100
8.03999995	1.31870500
8.07999995	1.33677200
8.11999995	1.35483900
8.15999995	1.33677200
8.19999995	1.30063800
8.23999995	1.22837000
8.27999995	1.15616300
8.31999995	1.08389500
8.35999995	0.97549360
8.39999995	0.86709190
8.43999995	0.75869010
8.47999995	0.63222150
8.51999995	0.50581380
8.55999995	0.36127810
8.59999995	0.23480940
8.63999995	0.12640770
8.67999995	0.00000000
8.71999995	-0.09027375
8.75999995	-0.19867550
8.79999995	-0.28901030
8.83999995	-0.36127810
8.87999995	-0.45161290
8.91999995	-0.50581380
8.95999995	-0.59608750
8.99999995	-0.65028840
9.03999995	-0.72255620
9.07999994	-0.79482410
9.11999994	-0.86709190
9.15999994	-0.93935970
9.19999994	-0.99356060
9.23999994	-1.06582800
9.27999994	-1.12002900
9.31999994	-1.17416900
9.35999994	-1.21030300
9.39999994	-1.24643700
9.43999994	-1.26450400
9.47999994	-1.26450400
9.51999994	-1.26450400
9.55999994	-1.22837000
9.59999994	-1.19223600
9.63999994	-1.12002900
9.67999994	-1.04776100
9.71999994	-0.95742670
9.75999994	-0.84902500
9.79999994	-0.74062320
9.83999994	-0.61415450
9.87999994	-0.46967990
9.91999994	-0.36127810
9.95999994	-0.23480940
9.99999994	-0.10834070
10.03999994	0.01800592
10.07999994	0.12640770
10.11999994	0.23480940
10.15999994	0.34321110
10.19999994	0.43354590
10.23999994	0.52388070
10.27999994	0.59608750
10.31999994	0.68642230
10.35999994	0.75869010
10.39999994	0.83095790
10.43999994	0.92129280
10.47999994	1.01162800
10.51999994	1.08389500
10.55999994	1.15616300
10.59999994	1.22837000
10.63999994	1.28257100
10.67999994	1.30063800
10.71999993	1.33677200
10.75999993	1.35483900
10.79999993	1.33677200
10.83999993	1.30063800
10.87999993	1.26450400
10.91999993	1.19223600
10.95999993	1.10196200
10.99999993	1.01162800
11.03999993	0.88515880
11.07999993	0.77675710
11.11999993	0.65028840
11.15999993	0.52388070
11.19999993	0.39741200
11.23999993	0.27094330
11.27999993	0.14447460
11.31999993	0.03607288
11.35999993	-0.07220680
11.39999993	-0.18060850
11.43999993	-0.27094330
11.47999993	-0.34321110
11.51999993	-0.43354590
11.55999993	-0.50581380
11.59999993	-0.57808160
11.63999993	-0.65028840
11.67999993	-0.72255620
11.71999993	-0.79482410
11.75999993	-0.84902500
11.79999993	-0.90322580
11.83999993	-0.99356060
11.87999993	-1.04776100
11.91999993	-1.10196200
11.95999993	-1.15616300
11.99999993	-1.21030300
12.03999993	-1.24643700
12.07999993	-1.26450400
12.11999993	-1.26450400
12.15999993	-1.26450400
12.19999993	-1.24643700
12.23999993	-1.19223600
12.27999993	-1.13809600
12.31999993	-1.08389500
12.35999992	-0.99356060
12.39999992	-0.86709190
12.43999992	-0.75869010
12.47999992	-0.65028840
12.51999992	-0.52388070
12.55999992	-0.39741200
12.59999992	-0.25287640
12.63999992	-0.12640770
12.67999992	0.00000000
12.71999992	0.10834070
12.75999992	0.23480940
12.79999992	0.32514420
12.83999992	0.41547900
12.87999992	0.50581380
12.91999992	0.57808160
12.95999992	0.65028840
12.99999992	0.74062320
13.03999992	0.81289100
13.07999992	0.90322580
13.11999992	0.97549360
13.15999992	1.04776100
13.19999992	1.13809600
13.23999992	1.19223600
13.27999992	1.26450400
13.31999992	1.30063800
13.35999992	1.33677200
13.39999992	1.35483900
13.43999992	1.33677200
13.47999992	1.31870500
13.51999992	1.28257100
13.55999992	1.21030300
13.59999992	1.12002900
13.63999992	1.04776100
13.67999992	0.92129280
13.71999992	0.79482410
13.75999992	0.68642230
13.79999992	0.54194770
13.83999992	0.43354590
13.87999992	0.28901030
13.91999992	0.16254160
13.95999992	0.05413984
13.99999991	-0.07220680
14.03999991	-0.14447460
14.07999991	-0.25287640
14.11999991	-0.32514420
14.15999991	-0.41547900
14.19999991	-0.48774680
14.23999991	-0.56001470
14.27999991	-0.61415450
14.31999991	-0.68642230
14.35999991	-0.75869010
14.39999991	-0.83095790
14.43999991	-0.90322580
14.47999991	-0.95742670
14.51999991	-1.02969500
14.55999991	-1.08389500
14.59999991	-1.15616300
14.63999991	-1.19223600
14.67999991	-1.24643700
14.71999991	-1.26450400
14.75999991	-1.28257100
14.79999991	-1.28257100
14.83999991	-1.24643700
14.87999991	-1.21030300
14.91999991	-1.15616300
14.95999991	-1.08389500
14.99999991	-0.99356060
15.03999991	-0.90322580
15.07999991	-0.79482410
15.11999991	-0.66835530
15.15999991	-0.54194770
15.19999991	-0.39741200
15.23999991	-0.27094330
15.27999991	-0.14447460
15.31999991	-0.01800592
15.35999991	0.09027375
15.39999991	0.19867550
15.43999991	0.30707720
15.47999991	0.39741200
15.51999991	0.48774680
15.55999991	0.57808160
15.59999991	0.65028840
15.63999990	0.72255620
15.67999990	0.79482410
15.71999990	0.88515880
15.75999990	0.97549360
15.79999990	1.04776100
15.83999990	1.12002900
15.87999990	1.19223600
15.91999990	1.26450400
15.95999990	1.30063800
15.99999990	1.33677200
16.03999990	1.33677200
16.07999990	1.33677200
16.11999990	1.31870500
16.15999990	1.28257100
16.19999990	1.21030300
16.23999990	1.15616300
16.27999990	1.04776100
16.31999990	0.93935970
16.35999990	0.83095790
16.39999990	0.70448930
16.43999990	0.57808160
16.47999990	0.45161290
16.51999990	0.32514420
16.55999990	0.19867550
16.59999990	0.07220680
16.63999990	-0.03607288
16.67999990	-0.12640770
16.71999990	-0.23480940
16.75999990	-0.30707720
16.79999990	-0.39741200
16.83999990	-0.46967990
16.87999990	-0.54194770
16.91999990	-0.61415450
16.95999990	-0.68642230
16.99999990	-0.74062320
17.03999990	-0.81289100
17.07999990	-0.88515880
17.11999990	-0.95742670
17.15999990	-1.01162800
17.19999990	-1.08389500
17.23999990	-1.15616300
17.27999989	-1.19223600
17.31999989	-1.22837000
17.35999989	-1.26450400
17.39999989	-1.26450400
17.43999989	-1.26450400
17.47999989	-1.26450400
17.51999989	-1.22837000
17.55999989	-1.17416900
17.59999989	-1.10196200
17.63999989	-1.01162800
17.67999989	-0.92129280
17.71999989	-0.81289100
17.75999989	-0.68642230
17.79999989	-0.57808160
17.83999989	-0.43354590
17.87999989	-0.30707720
17.91999989	-0.18060850
17.95999989	-0.05413984
17.99999989	0.05413984
18.03999989	0.16254160
18.07999989	0.28901030
18.11999989	0.37934510
18.15999989	0.46967990
18.19999989	0.54194770
18.23999989	0.63222150
18.27999989	0.72255620
18.31999989	0.79482410
18.35999989	0.86709190
18.39999989	0.93935970
18.43999989	1.02969500
18.47999989	1.10196200
18.51999989	1.17416900
18.55999989	1.22837000
18.59999989	1.28257100
18.63999989	1.31870500
18.67999989	1.33677200
18.71999989	1.35483900
18.75999989	1.31870500
18.79999989	1.30063800
18.83999989	1.22837000
18.87999989	1.15616300
18.91999989	1.06582800
18.95999988	0.97549360
18.99999988	0.86709190
19.03999988	0.72255620
19.07999988	0.61415450
19.11999988	0.48774680
19.15999988	0.34321110
19.19999988	0.21674250
19.23999988	0.10834070
19.27999988	0.00000000
19.31999988	-0.10834070
19.35999988	-0.19867550
19.39999988	-0.28901030
19.43999988	-0.37934510
19.47999988	-0.45161290
19.51999988	-0.52388070
19.55999988	-0.59608750
19.59999988	-0.66835530
19.63999988	-0.74062320
19.67999988	-0.81289100
19.71999988	-0.86709190
19.75999988	-0.93935970
19.79999988	-1.01162800
19.83999988	-1.08389500
19.87999988	-1.13809600
19.91999988	-1.17416900
19.95999988	-1.22837000
19.99999988	-1.24643700
20.03999988	-1.26450400
20.07999988	-1.28257100
20.11999988	-1.24643700
20.15999988	-1.22837000
20.19999988	-1.17416900
20.23999988	-1.12002900
20.27999988	-1.02969500
20.31999988	-0.93935970
20.35999988	-0.83095790
20.39999988	-0.72255620
20.43999988	-0.59608750
20.47999988	-0.46967990
20.51999988	-0.34321110
20.55999988	-0.21674250
20.59999987	-0.07220680
20.63999987	0.03607288
20.67999987	0.14447460
20.71999987	0.25287640
20.75999987	0.34321110
20.79999987	0.45161290
20.83999987	0.54194770
20.87999987	0.61415450
20.91999987	0.68642230
20.95999987	0.77675710
20.99999987	0.84902500
21.03999987	0.93935970
21.07999987	1.01162800
21.11999987	1.08389500
21.15999987	1.15616300
21.19999987	1.21030300
21.23999987	1.28257100
21.27999987	1.31870500
21.31999987	1.33677200
21.35999987	1.33677200
21.39999987	1.33677200
21.43999987	1.30063800
21.47999987	1.22837000
21.51999987	1.17416900
21.55999987	1.08389500
21.59999987	0.99356060
21.63999987	0.88515880
21.67999987	0.75869010
21.71999987	0.63222150
21.75999987	0.50581380
21.79999987	0.37934510
21.83999987	0.25287640
21.87999987	0.12640770
21.91999987	0.01800592
21.95999987	-0.09027375
21.99999987	-0.18060850
22.03999987	-0.28901030
22.07999987	-0.36127810
22.11999987	-0.43354590
22.15999987	-0.50581380
22.19999987	-0.57808160
22.23999986	-0.65028840
22.27999986	-0.72255620
22.31999986	-0.79482410
22.35999986	-0.86709190
22.39999986	-0.92129280
22.43999986	-0.99356060
22.47999986	-1.04776100
22.51999986	-1.12002900
22.55999986	-1.17416900
22.59999986	-1.21030300
22.63999986	-1.24643700
22.67999986	-1.26450400
22.71999986	-1.28257100
22.75999986	-1.26450400
22.79999986	-1.22837000
22.83999986	-1.19223600
22.87999986	-1.13809600
22.91999986	-1.06582800
22.95999986	-0.95742670
22.99999986	-0.86709190
23.03999986	-0.74062320
23.07999986	-0.63222150
23.11999986	-0.50581380
23.15999986	-0.37934510
23.19999986	-0.23480940
23.23999986	-0.10834070
23.27999986	0.00000000
23.31999986	0.12640770
23.35999986	0.23480940
23.39999986	0.34321110
23.43999986	0.43354590
23.47999986	0.50581380
23.51999986	0.57808160
23.55999986	0.68642230
23.59999986	0.75869010
23.63999986	0.83095790
23.67999986	0.92129280
23.71999986	0.99356060
23.75999986	1.08389500
23.79999986	1.13809600
23.83999986	1.21030300
23.87999985	1.26450400
23.91999985	1.30063800
23.95999985	1.33677200
23.99999985	1.33677200
24.03999985	1.33677200
24.07999985	1.30063800
24.11999985	1.26450400
24.15999985	1.19223600
24.19999985	1.10196200
24.23999985	1.01162800
24.27999985	0.90322580
24.31999985	0.79482410
24.35999985	0.66835530
24.39999985	0.54194770
24.43999985	0.41547900
24.47999985	0.28901030
24.51999985	0.16254160
24.55999985	0.05413984
24.59999985	-0.07220680
24.63999985	-0.16254160
24.67999985	-0.25287640
24.71999985	-0.34321110
24.75999985	-0.43354590
24.79999985	-0.50581380
24.83999985	-0.57808160
24.87999985	-0.63222150
24.91999985	-0.70448930
24.95999985	-0.77675710
24.99999985	-0.84902500
25.03999985	-0.90322580
25.07999985	-0.97549360
25.11999985	-1.04776100
25.15999985	-1.10196200
25.19999985	-1.15616300
25.23999985	-1.21030300
25.27999985	-1.24643700
25.31999985	-1.26450400
25.35999985	-1.26450400
25.39999985	-1.26450400
25.43999985	-1.24643700
25.47999985	-1.19223600
25.51999984	-1.15616300
25.55999984	-1.08389500
25.59999984	-0.97549360
25.63999984	-0.88515880
25.67999984	-0.75869010
25.71999984	-0.65028840
25.75999984	-0.52388070
25.79999984	-0.39741200
25.83999984	-0.27094330
25.87999984	-0.14447460
25.91999984	-0.01800592
25.95999984	0.09027375
25.99999984	0.21674250
26.03999984	0.30707720
26.07999984	0.41547900
26.11999984	0.48774680
26.15999984	0.57808160
26.19999984	0.65028840
26.23999984	0.72255620
26.27999984	0.81289100
26.31999984	0.90322580
26.35999984	0.97549360
26.39999984	1.06582800
26.43999984	1.13809600
26.47999984	1.19223600
26.51999984	1.26450400
26.55999984	1.30063800
26.59999984	1.33677200
26.63999984	1.35483900
26.67999984	1.33677200
26.71999984	1.31870500
26.75999984	1.26450400
26.79999984	1.21030300
26.83999984	1.12002900
26.87999984	1.02969500
26.91999984	0.92129280
26.95999984	0.81289100
26.99999984	0.68642230
27.03999984	0.56001470
27.07999984	0.43354590
27.11999984	0.28901030
27.15999983	0.18060850
27.19999983	0.05413984
27.23999983	-0.03607288
27.27999983	-0.14447460
27.31999983	-0.23480940
27.35999983	-0.32514420
27.39999983	-0.39741200
27.43999983	-0.46967990
27.47999983	-0.54194770
27.51999983	-0.61415450
27.55999983	-0.66835530
27.59999983	-0.75869010
27.63999983	-0.81289100
27.67999983	-0.90322580
27.71999983	-0.95742670
27.75999983	-1.02969500
27.79999983	-1.08389500
27.83999983	-1.15616300
27.87999983	-1.21030300
27.91999983	-1.24643700
27.95999983	-1.26450400
27.99999983	-1.28257100
28.03999983	-1.28257100
28.07999983	-1.26450400
28.11999983	-1.22837000
28.15999983	-1.15616300
28.19999983	-1.08389500
28.23999983	-0.99356060
28.27999983	-0.90322580
28.31999983	-0.79482410
28.35999983	-0.66835530
28.39999983	-0.54194770
28.43999983	-0.41547900
28.47999983	-0.28901030
28.51999983	-0.16254160
28.55999983	-0.03607288
28.59999983	0.07220680
28.63999983	0.18060850
28.67999983	0.28901030
28.71999983	0.37934510
28.75999983	0.46967990
28.79999982	0.54194770
28.83999982	0.63222150
28.87999982	0.72255620
28.91999982	0.79482410
28.95999982	0.86709190
28.99999982	0.93935970
29.03999982	1.02969500
29.07999982	1.12002900
29.11999982	1.19223600
29.15999982	1.24643700
29.19999982	1.28257100
29.23999982	1.33677200
29.27999982	1.35483900
29.31999982	1.35483900
29.35999982	1.31870500
29.39999982	1.30063800
29.43999982	1.22837000
29.47999982	1.15616300
29.51999982	1.06582800
29.55999982	0.95742670
29.59999982	0.83095790
29.63999982	0.72255620
29.67999982	0.57808160
29.71999982	0.46967990
29.75999982	0.32514420
29.79999982	0.19867550
29.83999982	0.07220680
29.87999982	-0.01800592
29.91999982	-0.12640770
29.95999982	-0.23480940
29.99999982	-0.30707720
30.03999982	-0.39741200
30.07999982	-0.45161290
30.11999982	-0.52388070
30.15999982	-0.59608750
30.19999982	-0.66835530
30.23999982	-0.74062320
30.27999982	-0.81289100
30.31999982	-0.86709190
30.35999982	-0.93935970
30.39999982	-1.01162800
30.43999982	-1.08389500
30.47999981	-1.13809600
30.51999981	-1.17416900
30.55999981	-1.22837000
30.59999981	-1.24643700
30.63999981	-1.28257100
30.67999981	-1.28257100
30.71999981	-1.26450400
30.75999981	-1.22837000
30.79999981	-1.17416900
30.83999981	-1.12002900
30.87999981	-1.01162800
30.91999981	-0.92129280
30.95999981	-0.81289100
30.99999981	-0.68642230
31.03999981	-0.57808160
31.07999981	-0.43354590
31.11999981	-0.30707720
31.15999981	-0.18060850
31.19999981	-0.07220680
31.23999981	0.05413984
31.27999981	0.16254160
31.31999981	0.27094330
31.35999981	0.36127810
31.39999981	0.45161290
31.43999981	0.54194770
31.47999981	0.61415450
31.51999981	0.70448930
31.55999981	0.77675710
31.59999981	0.84902500
31.63999981	0.92129280
31.67999981	1.01162800
31.71999981	1.08389500
31.75999981	1.15616300
31.79999981	1.22837000
31.83999981	1.28257100
31.87999981	1.31870500
31.91999981	1.33677200
31.95999981	1.35483900
31.99999981	1.33677200
32.03999981	1.28257100
32.07999981	1.22837000
32.11999980	1.15616300
32.15999980	1.08389500
32.19999980	0.97549360
32.23999980	0.86709190
32.27999980	0.74062320
32.31999980	0.61415450
32.35999980	0.48774680
32.39999980	0.36127810
32.43999980	0.23480940
32.47999980	0.12640770
32.51999980	0.00000000
32.55999980	-0.09027375
32.59999980	-0.21674250
32.63999980	-0.28901030
32.67999980	-0.37934510
32.71999980	-0.45161290
32.75999980	-0.52388070
32.79999980	-0.59608750
32.83999980	-0.65028840
32.87999980	-0.72255620
32.91999980	-0.79482410
32.95999980	-0.86709190
