Time	Channel A
(us)	(V)

0.00000000	1.17416900
0.04000000	1.08389500
0.08000000	0.99356060
0.12000000	0.88515880
0.16000000	0.75869010
0.20000000	0.63222150
0.24000000	0.50581380
0.28000000	0.37934510
0.32000000	0.25287640
0.36000000	0.12640770
0.40000000	0.00000000
0.44000000	-0.09027375
0.48000000	-0.19867550
0.52000000	-0.28901030
0.56000000	-0.36127810
0.60000000	-0.45161290
0.64000000	-0.52388070
0.68000000	-0.57808160
0.72000000	-0.65028840
0.76000000	-0.72255620
0.80000000	-0.77675710
0.83999999	-0.84902500
0.87999999	-0.92129280
0.91999999	-0.99356060
0.95999999	-1.04776100
0.99999999	-1.12002900
1.03999999	-1.17416900
1.07999999	-1.22837000
1.11999999	-1.24643700
1.15999999	-1.28257100
1.19999999	-1.28257100
1.23999999	-1.26450400
1.27999999	-1.24643700
1.31999999	-1.21030300
1.35999999	-1.13809600
1.39999999	-1.06582800
1.43999999	-0.95742670
1.47999999	-0.86709190
1.51999999	-0.74062320
1.55999999	-0.61415450
1.59999999	-0.48774680
1.63999999	-0.36127810
1.67999999	-0.23480940
1.71999999	-0.10834070
1.75999999	0.00000000
1.79999999	0.12640770
1.83999999	0.23480940
1.87999999	0.34321110
1.91999999	0.43354590
1.95999999	0.50581380
1.99999999	0.59608750
2.03999999	0.66835530
2.07999999	0.75869010
2.11999999	0.83095790
2.15999999	0.92129280
2.19999999	0.99356060
2.23999999	1.08389500
2.27999999	1.15616300
2.31999999	1.21030300
2.35999999	1.28257100
2.39999999	1.30063800
2.43999999	1.33677200
2.47999998	1.35483900
2.51999998	1.33677200
2.55999998	1.30063800
2.59999998	1.26450400
2.63999998	1.19223600
2.67999998	1.12002900
2.71999998	1.01162800
2.75999998	0.90322580
2.79999998	0.77675710
2.83999998	0.65028840
2.87999998	0.52388070
2.91999998	0.39741200
2.95999998	0.27094330
2.99999998	0.14447460
3.03999998	0.03607288
3.07999998	-0.07220680
3.11999998	-0.16254160
3.15999998	-0.25287640
3.19999998	-0.34321110
3.23999998	-0.41547900
3.27999998	-0.50581380
3.31999998	-0.57808160
3.35999998	-0.63222150
3.39999998	-0.70448930
3.43999998	-0.77675710
3.47999998	-0.84902500
3.51999998	-0.90322580
3.55999998	-0.97549360
3.59999998	-1.04776100
3.63999998	-1.12002900
3.67999998	-1.15616300
3.71999998	-1.21030300
3.75999998	-1.24643700
3.79999998	-1.26450400
3.83999998	-1.28257100
3.87999998	-1.26450400
3.91999998	-1.24643700
3.95999998	-1.21030300
3.99999998	-1.15616300
4.03999998	-1.06582800
4.07999998	-0.97549360
4.11999997	-0.86709190
4.15999997	-0.75869010
4.19999997	-0.65028840
4.23999997	-0.52388070
4.27999997	-0.37934510
4.31999997	-0.25287640
4.35999997	-0.14447460
4.39999997	0.00000000
4.43999997	0.10834070
4.47999997	0.21674250
4.51999997	0.30707720
4.55999997	0.41547900
4.59999997	0.50581380
4.63999997	0.57808160
4.67999997	0.65028840
4.71999997	0.74062320
4.75999997	0.81289100
4.79999997	0.90322580
4.83999997	0.99356060
4.87999997	1.06582800
4.91999997	1.13809600
4.95999997	1.19223600
4.99999997	1.28257100
5.03999997	1.30063800
5.07999997	1.33677200
5.11999997	1.35483900
5.15999997	1.33677200
5.19999997	1.31870500
5.23999997	1.26450400
5.27999997	1.21030300
5.31999997	1.10196200
5.35999997	1.02969500
5.39999997	0.92129280
5.43999997	0.81289100
5.47999997	0.68642230
5.51999997	0.56001470
5.55999997	0.43354590
5.59999997	0.28901030
5.63999997	0.18060850
5.67999997	0.05413984
5.71999997	-0.05413984
5.75999996	-0.14447460
5.79999996	-0.23480940
5.83999996	-0.32514420
5.87999996	-0.41547900
5.91999996	-0.48774680
5.95999996	-0.56001470
5.99999996	-0.61415450
6.03999996	-0.68642230
6.07999996	-0.75869010
6.11999996	-0.83095790
6.15999996	-0.88515880
6.19999996	-0.97549360
6.23999996	-1.02969500
6.27999996	-1.10196200
6.31999996	-1.15616300
6.35999996	-1.21030300
6.39999996	-1.24643700
6.43999996	-1.26450400
6.47999996	-1.28257100
6.51999996	-1.28257100
6.55999996	-1.24643700
6.59999996	-1.21030300
6.63999996	-1.15616300
6.67999996	-1.08389500
6.71999996	-1.01162800
6.75999996	-0.90322580
6.79999996	-0.79482410
6.83999996	-0.65028840
6.87999996	-0.54194770
6.91999996	-0.41547900
6.95999996	-0.28901030
6.99999996	-0.16254160
7.03999996	-0.03607288
7.07999996	0.07220680
7.11999996	0.19867550
7.15999996	0.28901030
7.19999996	0.39741200
7.23999996	0.46967990
7.27999996	0.56001470
7.31999996	0.63222150
7.35999996	0.72255620
7.39999996	0.79482410
7.43999995	0.88515880
7.47999995	0.95742670
7.51999995	1.04776100
7.55999995	1.12002900
7.59999995	1.19223600
7.63999995	1.24643700
7.67999995	1.30063800
7.71999995	1.33677200
7.75999995	1.35483900
7.79999995	1.35483900
7.83999995	1.31870500
7.87999995	1.28257100
7.91999995	1.22837000
7.95999995	1.15616300
7.99999995	1.04776100
8.03999995	0.93935970
8.07999995	0.83095790
8.11999995	0.70448930
8.15999995	0.57808160
8.19999995	0.45161290
8.23999995	0.32514420
8.27999995	0.19867550
8.31999995	0.07220680
8.35999995	-0.03607288
8.39999995	-0.12640770
8.43999995	-0.23480940
8.47999995	-0.30707720
8.51999995	-0.39741200
8.55999995	-0.46967990
8.59999995	-0.54194770
8.63999995	-0.59608750
8.67999995	-0.66835530
8.71999995	-0.74062320
8.75999995	-0.81289100
8.79999995	-0.88515880
8.83999995	-0.93935970
8.87999995	-1.01162800
8.91999995	-1.08389500
8.95999995	-1.13809600
8.99999995	-1.19223600
9.03999995	-1.22837000
9.07999994	-1.26450400
9.11999994	-1.28257100
9.15999994	-1.28257100
9.19999994	-1.26450400
9.23999994	-1.22837000
9.27999994	-1.17416900
9.31999994	-1.10196200
9.35999994	-1.01162800
9.39999994	-0.92129280
9.43999994	-0.81289100
9.47999994	-0.68642230
9.51999994	-0.57808160
9.55999994	-0.43354590
9.59999994	-0.30707720
9.63999994	-0.18060850
9.67999994	-0.07220680
9.71999994	0.05413984
9.75999994	0.16254160
9.79999994	0.28901030
9.83999994	0.36127810
9.87999994	0.46967990
9.91999994	0.54194770
9.95999994	0.61415450
9.99999994	0.70448930
10.03999994	0.77675710
10.07999994	0.86709190
10.11999994	0.93935970
10.15999994	1.02969500
10.19999994	1.08389500
10.23999994	1.15616300
10.27999994	1.22837000
10.31999994	1.28257100
10.35999994	1.31870500
10.39999994	1.33677200
10.43999994	1.33677200
10.47999994	1.31870500
10.51999994	1.28257100
10.55999994	1.24643700
10.59999994	1.15616300
10.63999994	1.08389500
10.67999994	0.97549360
10.71999993	0.86709190
10.75999993	0.74062320
10.79999993	0.61415450
10.83999993	0.48774680
10.87999993	0.34321110
10.91999993	0.21674250
10.95999993	0.10834070
10.99999993	0.00000000
11.03999993	-0.12640770
11.07999993	-0.21674250
11.11999993	-0.30707720
11.15999993	-0.37934510
11.19999993	-0.45161290
11.23999993	-0.52388070
11.27999993	-0.59608750
11.31999993	-0.65028840
11.35999993	-0.72255620
11.39999993	-0.79482410
11.43999993	-0.86709190
11.47999993	-0.93935970
11.51999993	-1.01162800
11.55999993	-1.06582800
11.59999993	-1.12002900
11.63999993	-1.17416900
11.67999993	-1.21030300
11.71999993	-1.24643700
11.75999993	-1.26450400
11.79999993	-1.26450400
11.83999993	-1.26450400
11.87999993	-1.22837000
11.91999993	-1.17416900
11.95999993	-1.12002900
11.99999993	-1.02969500
12.03999993	-0.95742670
12.07999993	-0.84902500
12.11999993	-0.72255620
12.15999993	-0.59608750
12.19999993	-0.46967990
12.23999993	-0.34321110
12.27999993	-0.21674250
12.31999993	-0.07220680
12.35999992	0.03607288
12.39999992	0.14447460
12.43999992	0.27094330
12.47999992	0.36127810
12.51999992	0.45161290
12.55999992	0.52388070
12.59999992	0.59608750
12.63999992	0.68642230
12.67999992	0.75869010
12.71999992	0.83095790
12.75999992	0.92129280
12.79999992	0.99356060
12.83999992	1.08389500
12.87999992	1.15616300
12.91999992	1.21030300
12.95999992	1.28257100
12.99999992	1.31870500
13.03999992	1.33677200
13.07999992	1.33677200
13.11999992	1.33677200
13.15999992	1.30063800
13.19999992	1.24643700
13.23999992	1.17416900
13.27999992	1.10196200
13.31999992	0.99356060
13.35999992	0.88515880
13.39999992	0.75869010
13.43999992	0.63222150
13.47999992	0.50581380
13.51999992	0.37934510
13.55999992	0.23480940
13.59999992	0.12640770
13.63999992	0.00000000
13.67999992	-0.09027375
13.71999992	-0.19867550
13.75999992	-0.28901030
13.79999992	-0.36127810
13.83999992	-0.43354590
13.87999992	-0.50581380
13.91999992	-0.57808160
13.95999992	-0.65028840
13.99999991	-0.72255620
14.03999991	-0.77675710
14.07999991	-0.84902500
14.11999991	-0.92129280
14.15999991	-0.97549360
14.19999991	-1.04776100
14.23999991	-1.10196200
14.27999991	-1.15616300
14.31999991	-1.21030300
14.35999991	-1.24643700
14.39999991	-1.26450400
14.43999991	-1.28257100
14.47999991	-1.26450400
14.51999991	-1.22837000
14.55999991	-1.19223600
14.59999991	-1.15616300
14.63999991	-1.04776100
14.67999991	-0.95742670
14.71999991	-0.86709190
14.75999991	-0.74062320
14.79999991	-0.61415450
14.83999991	-0.48774680
14.87999991	-0.36127810
14.91999991	-0.23480940
14.95999991	-0.10834070
14.99999991	0.01800592
15.03999991	0.12640770
15.07999991	0.23480940
15.11999991	0.32514420
15.15999991	0.43354590
15.19999991	0.50581380
15.23999991	0.59608750
15.27999991	0.66835530
15.31999991	0.74062320
15.35999991	0.83095790
15.39999991	0.92129280
15.43999991	0.99356060
15.47999991	1.06582800
15.51999991	1.13809600
15.55999991	1.21030300
15.59999991	1.26450400
15.63999990	1.30063800
15.67999990	1.33677200
15.71999990	1.33677200
15.75999990	1.33677200
15.79999990	1.30063800
15.83999990	1.26450400
15.87999990	1.19223600
15.91999990	1.10196200
15.95999990	1.01162800
15.99999990	0.90322580
16.03999990	0.77675710
16.07999990	0.65028840
16.11999990	0.54194770
16.15999990	0.41547900
16.19999990	0.27094330
16.23999990	0.16254160
16.27999990	0.03607288
16.31999990	-0.07220680
16.35999990	-0.16254160
16.39999990	-0.25287640
16.43999990	-0.34321110
16.47999990	-0.43354590
16.51999990	-0.50581380
16.55999990	-0.57808160
16.59999990	-0.63222150
16.63999990	-0.70448930
16.67999990	-0.77675710
16.71999990	-0.83095790
16.75999990	-0.90322580
16.79999990	-0.97549360
16.83999990	-1.04776100
16.87999990	-1.10196200
16.91999990	-1.15616300
16.95999990	-1.19223600
16.99999990	-1.24643700
17.03999990	-1.26450400
17.07999990	-1.28257100
17.11999990	-1.26450400
17.15999990	-1.22837000
17.19999990	-1.19223600
17.23999990	-1.15616300
17.27999989	-1.06582800
17.31999989	-0.97549360
17.35999989	-0.88515880
17.39999989	-0.75869010
17.43999989	-0.65028840
17.47999989	-0.52388070
17.51999989	-0.39741200
17.55999989	-0.27094330
17.59999989	-0.14447460
17.63999989	-0.01800592
17.67999989	0.09027375
17.71999989	0.21674250
17.75999989	0.30707720
17.79999989	0.39741200
17.83999989	0.48774680
17.87999989	0.57808160
17.91999989	0.65028840
17.95999989	0.72255620
17.99999989	0.81289100
18.03999989	0.88515880
18.07999989	0.97549360
18.11999989	1.06582800
18.15999989	1.13809600
18.19999989	1.21030300
18.23999989	1.28257100
18.27999989	1.30063800
18.31999989	1.33677200
18.35999989	1.35483900
18.39999989	1.33677200
18.43999989	1.30063800
18.47999989	1.26450400
18.51999989	1.21030300
18.55999989	1.12002900
18.59999989	1.02969500
18.63999989	0.92129280
18.67999989	0.79482410
18.71999989	0.66835530
18.75999989	0.54194770
18.79999989	0.43354590
18.83999989	0.28901030
18.87999989	0.18060850
18.91999989	0.05413984
18.95999988	-0.05413984
18.99999988	-0.14447460
19.03999988	-0.25287640
19.07999988	-0.32514420
19.11999988	-0.39741200
19.15999988	-0.46967990
19.19999988	-0.54194770
19.23999988	-0.63222150
19.27999988	-0.68642230
19.31999988	-0.75869010
19.35999988	-0.81289100
19.39999988	-0.88515880
19.43999988	-0.95742670
19.47999988	-1.02969500
19.51999988	-1.10196200
19.55999988	-1.15616300
19.59999988	-1.19223600
19.63999988	-1.22837000
19.67999988	-1.26450400
19.71999988	-1.28257100
19.75999988	-1.28257100
19.79999988	-1.24643700
19.83999988	-1.21030300
19.87999988	-1.15616300
19.91999988	-1.10196200
19.95999988	-0.99356060
19.99999988	-0.88515880
20.03999988	-0.79482410
20.07999988	-0.66835530
20.11999988	-0.54194770
20.15999988	-0.41547900
20.19999988	-0.28901030
20.23999988	-0.16254160
20.27999988	-0.03607288
20.31999988	0.07220680
20.35999988	0.19867550
20.39999988	0.28901030
20.43999988	0.39741200
20.47999988	0.46967990
20.51999988	0.56001470
20.55999988	0.63222150
20.59999987	0.72255620
20.63999987	0.79482410
20.67999987	0.86709190
20.71999987	0.95742670
20.75999987	1.04776100
20.79999987	1.12002900
20.83999987	1.17416900
20.87999987	1.22837000
20.91999987	1.30063800
20.95999987	1.31870500
20.99999987	1.33677200
21.03999987	1.35483900
21.07999987	1.31870500
21.11999987	1.28257100
21.15999987	1.22837000
21.19999987	1.15616300
21.23999987	1.06582800
21.27999987	0.95742670
21.31999987	0.83095790
21.35999987	0.72255620
21.39999987	0.57808160
21.43999987	0.46967990
21.47999987	0.32514420
21.51999987	0.19867550
21.55999987	0.07220680
21.59999987	-0.03607288
21.63999987	-0.12640770
21.67999987	-0.23480940
21.71999987	-0.30707720
21.75999987	-0.39741200
21.79999987	-0.46967990
21.83999987	-0.54194770
21.87999987	-0.61415450
21.91999987	-0.66835530
21.95999987	-0.74062320
21.99999987	-0.81289100
22.03999987	-0.88515880
22.07999987	-0.93935970
22.11999987	-1.01162800
22.15999987	-1.08389500
22.19999987	-1.13809600
22.23999986	-1.17416900
22.27999986	-1.22837000
22.31999986	-1.26450400
22.35999986	-1.26450400
22.39999986	-1.26450400
22.43999986	-1.26450400
22.47999986	-1.22837000
22.51999986	-1.17416900
22.55999986	-1.10196200
22.59999986	-1.02969500
22.63999986	-0.93935970
22.67999986	-0.83095790
22.71999986	-0.70448930
22.75999986	-0.57808160
22.79999986	-0.45161290
22.83999986	-0.32514420
22.87999986	-0.19867550
22.91999986	-0.07220680
22.95999986	0.05413984
22.99999986	0.16254160
23.03999986	0.28901030
23.07999986	0.36127810
23.11999986	0.46967990
23.15999986	0.54194770
23.19999986	0.63222150
23.23999986	0.70448930
23.27999986	0.77675710
23.31999986	0.86709190
23.35999986	0.93935970
23.39999986	1.02969500
23.43999986	1.10196200
23.47999986	1.15616300
23.51999986	1.22837000
23.55999986	1.28257100
23.59999986	1.31870500
23.63999986	1.33677200
23.67999986	1.33677200
23.71999986	1.31870500
23.75999986	1.30063800
23.79999986	1.22837000
23.83999986	1.15616300
23.87999985	1.08389500
23.91999985	0.97549360
23.95999985	0.86709190
23.99999985	0.74062320
24.03999985	0.61415450
24.07999985	0.48774680
24.11999985	0.34321110
24.15999985	0.23480940
24.19999985	0.12640770
24.23999985	0.00000000
24.27999985	-0.10834070
24.31999985	-0.19867550
24.35999985	-0.28901030
24.39999985	-0.37934510
24.43999985	-0.45161290
24.47999985	-0.52388070
24.51999985	-0.59608750
24.55999985	-0.66835530
24.59999985	-0.74062320
24.63999985	-0.79482410
24.67999985	-0.86709190
24.71999985	-0.93935970
24.75999985	-1.01162800
24.79999985	-1.06582800
24.83999985	-1.12002900
24.87999985	-1.17416900
24.91999985	-1.22837000
24.95999985	-1.24643700
24.99999985	-1.26450400
25.03999985	-1.26450400
25.07999985	-1.26450400
25.11999985	-1.22837000
25.15999985	-1.19223600
25.19999985	-1.12002900
25.23999985	-1.02969500
25.27999985	-0.93935970
25.31999985	-0.84902500
25.35999985	-0.72255620
25.39999985	-0.59608750
25.43999985	-0.46967990
25.47999985	-0.36127810
25.51999984	-0.21674250
25.55999984	-0.09027375
25.59999984	0.03607288
25.63999984	0.14447460
25.67999984	0.25287640
25.71999984	0.34321110
25.75999984	0.43354590
25.79999984	0.52388070
25.83999984	0.61415450
25.87999984	0.68642230
25.91999984	0.75869010
25.95999984	0.84902500
25.99999984	0.92129280
26.03999984	1.01162800
26.07999984	1.08389500
26.11999984	1.15616300
26.15999984	1.22837000
26.19999984	1.28257100
26.23999984	1.31870500
26.27999984	1.33677200
26.31999984	1.35483900
26.35999984	1.33677200
26.39999984	1.30063800
26.43999984	1.24643700
26.47999984	1.17416900
26.51999984	1.08389500
26.55999984	0.99356060
26.59999984	0.88515880
26.63999984	0.75869010
26.67999984	0.63222150
26.71999984	0.50581380
26.75999984	0.36127810
26.79999984	0.25287640
26.83999984	0.14447460
26.87999984	0.01800592
26.91999984	-0.09027375
26.95999984	-0.18060850
26.99999984	-0.27094330
27.03999984	-0.36127810
27.07999984	-0.43354590
27.11999984	-0.50581380
27.15999983	-0.57808160
27.19999983	-0.65028840
27.23999983	-0.72255620
27.27999983	-0.79482410
27.31999983	-0.86709190
27.35999983	-0.92129280
27.39999983	-0.99356060
27.43999983	-1.06582800
27.47999983	-1.12002900
27.51999983	-1.15616300
27.55999983	-1.21030300
27.59999983	-1.24643700
27.63999983	-1.28257100
27.67999983	-1.26450400
27.71999983	-1.26450400
27.75999983	-1.22837000
27.79999983	-1.19223600
27.83999983	-1.13809600
27.87999983	-1.04776100
27.91999983	-0.95742670
27.95999983	-0.86709190
27.99999983	-0.74062320
28.03999983	-0.61415450
28.07999983	-0.50581380
28.11999983	-0.36127810
28.15999983	-0.23480940
28.19999983	-0.10834070
28.23999983	0.00000000
28.27999983	0.12640770
28.31999983	0.21674250
28.35999983	0.32514420
28.39999983	0.43354590
28.43999983	0.50581380
28.47999983	0.57808160
28.51999983	0.66835530
28.55999983	0.74062320
28.59999983	0.83095790
28.63999983	0.90322580
28.67999983	0.99356060
28.71999983	1.06582800
28.75999983	1.13809600
28.79999982	1.21030300
28.83999982	1.26450400
28.87999982	1.30063800
28.91999982	1.33677200
28.95999982	1.35483900
28.99999982	1.33677200
29.03999982	1.30063800
29.07999982	1.26450400
29.11999982	1.19223600
29.15999982	1.12002900
29.19999982	1.01162800
29.23999982	0.90322580
29.27999982	0.79482410
29.31999982	0.65028840
29.35999982	0.54194770
29.39999982	0.41547900
29.43999982	0.28901030
29.47999982	0.14447460
29.51999982	0.05413984
29.55999982	-0.05413984
29.59999982	-0.16254160
29.63999982	-0.25287640
29.67999982	-0.34321110
29.71999982	-0.41547900
29.75999982	-0.48774680
29.79999982	-0.56001470
29.83999982	-0.61415450
29.87999982	-0.70448930
29.91999982	-0.77675710
29.95999982	-0.83095790
29.99999982	-0.90322580
30.03999982	-0.97549360
30.07999982	-1.04776100
30.11999982	-1.10196200
30.15999982	-1.15616300
30.19999982	-1.21030300
30.23999982	-1.24643700
30.27999982	-1.26450400
30.31999982	-1.26450400
30.35999982	-1.26450400
30.39999982	-1.24643700
30.43999982	-1.21030300
30.47999981	-1.15616300
30.51999981	-1.08389500
30.55999981	-0.99356060
30.59999981	-0.88515880
30.63999981	-0.77675710
30.67999981	-0.65028840
30.71999981	-0.52388070
30.75999981	-0.39741200
30.79999981	-0.27094330
30.83999981	-0.14447460
30.87999981	-0.01800592
30.91999981	0.09027375
30.95999981	0.19867550
30.99999981	0.30707720
31.03999981	0.41547900
31.07999981	0.48774680
31.11999981	0.57808160
31.15999981	0.65028840
31.19999981	0.72255620
31.23999981	0.79482410
31.27999981	0.88515880
31.31999981	0.97549360
31.35999981	1.04776100
31.39999981	1.12002900
31.43999981	1.19223600
31.47999981	1.26450400
31.51999981	1.30063800
31.55999981	1.31870500
31.59999981	1.33677200
31.63999981	1.33677200
31.67999981	1.30063800
31.71999981	1.28257100
31.75999981	1.21030300
31.79999981	1.13809600
31.83999981	1.02969500
31.87999981	0.92129280
31.91999981	0.81289100
31.95999981	0.68642230
31.99999981	0.57808160
32.03999981	0.43354590
32.07999981	0.30707720
32.11999980	0.18060850
32.15999980	0.07220680
32.19999980	-0.03607288
32.23999980	-0.14447460
32.27999980	-0.23480940
32.31999980	-0.30707720
32.35999980	-0.39741200
32.39999980	-0.46967990
32.43999980	-0.54194770
32.47999980	-0.61415450
32.51999980	-0.68642230
32.55999980	-0.75869010
32.59999980	-0.83095790
32.63999980	-0.90322580
32.67999980	-0.95742670
32.71999980	-1.01162800
32.75999980	-1.08389500
32.79999980	-1.15616300
32.83999980	-1.19223600
32.87999980	-1.22837000
32.91999980	-1.24643700
32.95999980	-1.28257100
