Time	Channel A
(us)	(V)

0.00000000	-0.12640770
0.04000000	-0.21674250
0.08000000	-0.28901030
0.12000000	-0.37934510
0.16000000	-0.45161290
0.20000000	-0.52388070
0.24000000	-0.59608750
0.28000000	-0.65028840
0.32000000	-0.72255620
0.36000000	-0.79482410
0.40000000	-0.86709190
0.44000000	-0.93935970
0.48000000	-0.99356060
0.52000000	-1.06582800
0.56000000	-1.12002900
0.60000000	-1.17416900
0.64000000	-1.22837000
0.68000000	-1.24643700
0.72000000	-1.28257100
0.76000000	-1.28257100
0.80000000	-1.24643700
0.83999999	-1.22837000
0.87999999	-1.17416900
0.91999999	-1.10196200
0.95999999	-1.02969500
0.99999999	-0.92129280
1.03999999	-0.81289100
1.07999999	-0.70448930
1.11999999	-0.57808160
1.15999999	-0.43354590
1.19999999	-0.30707720
1.23999999	-0.18060850
1.27999999	-0.07220680
1.31999999	0.05413984
1.35999999	0.16254160
1.39999999	0.27094330
1.43999999	0.36127810
1.47999999	0.45161290
1.51999999	0.54194770
1.55999999	0.61415450
1.59999999	0.70448930
1.63999999	0.77675710
1.67999999	0.84902500
1.71999999	0.93935970
1.75999999	1.01162800
1.79999999	1.08389500
1.83999999	1.15616300
1.87999999	1.22837000
1.91999999	1.28257100
1.95999999	1.31870500
1.99999999	1.33677200
2.03999999	1.33677200
2.07999999	1.31870500
2.11999999	1.30063800
2.15999999	1.22837000
2.19999999	1.15616300
2.23999999	1.08389500
2.27999999	0.99356060
2.31999999	0.86709190
2.35999999	0.74062320
2.39999999	0.61415450
2.43999999	0.48774680
2.47999998	0.36127810
2.51999998	0.23480940
2.55999998	0.12640770
2.59999998	0.00000000
2.63999998	-0.09027375
2.67999998	-0.19867550
2.71999998	-0.28901030
2.75999998	-0.37934510
2.79999998	-0.45161290
2.83999998	-0.50581380
2.87999998	-0.59608750
2.91999998	-0.65028840
2.95999998	-0.72255620
2.99999998	-0.79482410
3.03999998	-0.84902500
3.07999998	-0.92129280
3.11999998	-0.99356060
3.15999998	-1.04776100
3.19999998	-1.10196200
3.23999998	-1.15616300
3.27999998	-1.19223600
3.31999998	-1.22837000
3.35999998	-1.26450400
3.39999998	-1.26450400
3.43999998	-1.24643700
3.47999998	-1.22837000
3.51999998	-1.17416900
3.55999998	-1.12002900
3.59999998	-1.04776100
3.63999998	-0.93935970
3.67999998	-0.84902500
3.71999998	-0.72255620
3.75999998	-0.61415450
3.79999998	-0.46967990
3.83999998	-0.36127810
3.87999998	-0.23480940
3.91999998	-0.09027375
3.95999998	0.01800592
3.99999998	0.14447460
4.03999998	0.25287640
4.07999998	0.36127810
4.11999997	0.43354590
4.15999997	0.52388070
4.19999997	0.59608750
4.23999997	0.68642230
4.27999997	0.75869010
4.31999997	0.84902500
4.35999997	0.92129280
4.39999997	0.99356060
4.43999997	1.08389500
4.47999997	1.15616300
4.51999997	1.21030300
4.55999997	1.26450400
4.59999997	1.30063800
4.63999997	1.33677200
4.67999997	1.33677200
4.71999997	1.31870500
4.75999997	1.30063800
4.79999997	1.26450400
4.83999997	1.19223600
4.87999997	1.10196200
4.91999997	0.99356060
4.95999997	0.88515880
4.99999997	0.77675710
5.03999997	0.65028840
5.07999997	0.52388070
5.11999997	0.39741200
5.15999997	0.27094330
5.19999997	0.14447460
5.23999997	0.01800592
5.27999997	-0.07220680
5.31999997	-0.18060850
5.35999997	-0.27094330
5.39999997	-0.36127810
5.43999997	-0.43354590
5.47999997	-0.50581380
5.51999997	-0.57808160
5.55999997	-0.65028840
5.59999997	-0.72255620
5.63999997	-0.77675710
5.67999997	-0.84902500
5.71999997	-0.92129280
5.75999996	-0.97549360
5.79999996	-1.04776100
5.83999996	-1.10196200
5.87999996	-1.15616300
5.91999996	-1.21030300
5.95999996	-1.24643700
5.99999996	-1.28257100
6.03999996	-1.28257100
6.07999996	-1.26450400
6.11999996	-1.24643700
6.15999996	-1.19223600
6.19999996	-1.13809600
6.23999996	-1.04776100
6.27999996	-0.97549360
6.31999996	-0.86709190
6.35999996	-0.74062320
6.39999996	-0.63222150
6.43999996	-0.50581380
6.47999996	-0.36127810
6.51999996	-0.23480940
6.55999996	-0.10834070
6.59999996	0.00000000
6.63999996	0.12640770
6.67999996	0.23480940
6.71999996	0.32514420
6.75999996	0.43354590
6.79999996	0.50581380
6.83999996	0.57808160
6.87999996	0.66835530
6.91999996	0.74062320
6.95999996	0.83095790
6.99999996	0.90322580
7.03999996	0.99356060
7.07999996	1.06582800
7.11999996	1.13809600
7.15999996	1.21030300
7.19999996	1.28257100
7.23999996	1.31870500
7.27999996	1.33677200
7.31999996	1.35483900
7.35999996	1.33677200
7.39999996	1.31870500
7.43999995	1.26450400
7.47999995	1.21030300
7.51999995	1.12002900
7.55999995	1.01162800
7.59999995	0.90322580
7.63999995	0.79482410
7.67999995	0.66835530
7.71999995	0.54194770
7.75999995	0.39741200
7.79999995	0.28901030
7.83999995	0.14447460
7.87999995	0.05413984
7.91999995	-0.07220680
7.95999995	-0.16254160
7.99999995	-0.25287640
8.03999995	-0.34321110
8.07999995	-0.39741200
8.11999995	-0.48774680
8.15999995	-0.56001470
8.19999995	-0.63222150
8.23999995	-0.68642230
8.27999995	-0.75869010
8.31999995	-0.83095790
8.35999995	-0.90322580
8.39999995	-0.97549360
8.43999995	-1.02969500
8.47999995	-1.10196200
8.51999995	-1.15616300
8.55999995	-1.21030300
8.59999995	-1.24643700
8.63999995	-1.26450400
8.67999995	-1.30063800
8.71999995	-1.26450400
8.75999995	-1.24643700
8.79999995	-1.21030300
8.83999995	-1.15616300
8.87999995	-1.08389500
8.91999995	-0.99356060
8.95999995	-0.88515880
8.99999995	-0.75869010
9.03999995	-0.65028840
9.07999994	-0.52388070
9.11999994	-0.39741200
9.15999994	-0.27094330
9.19999994	-0.14447460
9.23999994	-0.01800592
9.27999994	0.10834070
9.31999994	0.21674250
9.35999994	0.30707720
9.39999994	0.39741200
9.43999994	0.48774680
9.47999994	0.57808160
9.51999994	0.65028840
9.55999994	0.72255620
9.59999994	0.79482410
9.63999994	0.88515880
9.67999994	0.97549360
9.71999994	1.04776100
9.75999994	1.13809600
9.79999994	1.19223600
9.83999994	1.26450400
9.87999994	1.30063800
9.91999994	1.33677200
9.95999994	1.35483900
9.99999994	1.35483900
10.03999994	1.31870500
10.07999994	1.28257100
10.11999994	1.21030300
10.15999994	1.13809600
10.19999994	1.04776100
10.23999994	0.93935970
10.27999994	0.81289100
10.31999994	0.68642230
10.35999994	0.57808160
10.39999994	0.43354590
10.43999994	0.30707720
10.47999994	0.18060850
10.51999994	0.07220680
10.55999994	-0.03607288
10.59999994	-0.14447460
10.63999994	-0.23480940
10.67999994	-0.32514420
10.71999993	-0.39741200
10.75999993	-0.46967990
10.79999993	-0.54194770
10.83999993	-0.61415450
10.87999993	-0.66835530
10.91999993	-0.74062320
10.95999993	-0.81289100
10.99999993	-0.88515880
11.03999993	-0.95742670
11.07999993	-1.01162800
11.11999993	-1.08389500
11.15999993	-1.15616300
11.19999993	-1.19223600
11.23999993	-1.22837000
11.27999993	-1.26450400
11.31999993	-1.28257100
11.35999993	-1.28257100
11.39999993	-1.26450400
11.43999993	-1.22837000
11.47999993	-1.15616300
11.51999993	-1.10196200
11.55999993	-1.01162800
11.59999993	-0.90322580
11.63999993	-0.79482410
11.67999993	-0.68642230
11.71999993	-0.54194770
11.75999993	-0.43354590
11.79999993	-0.28901030
11.83999993	-0.16254160
11.87999993	-0.03607288
11.91999993	0.07220680
11.95999993	0.18060850
11.99999993	0.28901030
12.03999993	0.37934510
12.07999993	0.48774680
12.11999993	0.56001470
12.15999993	0.63222150
12.19999993	0.70448930
12.23999993	0.79482410
12.27999993	0.86709190
12.31999993	0.93935970
12.35999992	1.02969500
12.39999992	1.10196200
12.43999992	1.17416900
12.47999992	1.24643700
12.51999992	1.28257100
12.55999992	1.33677200
12.59999992	1.33677200
12.63999992	1.33677200
12.67999992	1.31870500
12.71999992	1.28257100
12.75999992	1.22837000
12.79999992	1.15616300
12.83999992	1.06582800
12.87999992	0.95742670
12.91999992	0.84902500
12.95999992	0.72255620
12.99999992	0.61415450
13.03999992	0.46967990
13.07999992	0.34321110
13.11999992	0.21674250
13.15999992	0.10834070
13.19999992	-0.01800592
13.23999992	-0.10834070
13.27999992	-0.21674250
13.31999992	-0.28901030
13.35999992	-0.37934510
13.39999992	-0.45161290
13.43999992	-0.54194770
13.47999992	-0.59608750
13.51999992	-0.66835530
13.55999992	-0.74062320
13.59999992	-0.81289100
13.63999992	-0.86709190
13.67999992	-0.93935970
13.71999992	-1.01162800
13.75999992	-1.08389500
13.79999992	-1.12002900
13.83999992	-1.17416900
13.87999992	-1.22837000
13.91999992	-1.24643700
13.95999992	-1.26450400
13.99999991	-1.28257100
14.03999991	-1.24643700
14.07999991	-1.22837000
14.11999991	-1.17416900
14.15999991	-1.12002900
14.19999991	-1.02969500
14.23999991	-0.93935970
14.27999991	-0.83095790
14.31999991	-0.70448930
14.35999991	-0.57808160
14.39999991	-0.45161290
14.43999991	-0.32514420
14.47999991	-0.19867550
14.51999991	-0.07220680
14.55999991	0.05413984
14.59999991	0.16254160
14.63999991	0.27094330
14.67999991	0.36127810
14.71999991	0.45161290
14.75999991	0.54194770
14.79999991	0.61415450
14.83999991	0.70448930
14.87999991	0.77675710
14.91999991	0.86709190
14.95999991	0.93935970
14.99999991	1.01162800
15.03999991	1.08389500
15.07999991	1.15616300
15.11999991	1.22837000
15.15999991	1.28257100
15.19999991	1.30063800
15.23999991	1.33677200
15.27999991	1.33677200
15.31999991	1.31870500
15.35999991	1.30063800
15.39999991	1.22837000
15.43999991	1.17416900
15.47999991	1.08389500
15.51999991	0.99356060
15.55999991	0.86709190
15.59999991	0.75869010
15.63999990	0.63222150
15.67999990	0.50581380
15.71999990	0.36127810
15.75999990	0.25287640
15.79999990	0.12640770
15.83999990	0.00000000
15.87999990	-0.09027375
15.91999990	-0.18060850
15.95999990	-0.27094330
15.99999990	-0.36127810
16.03999990	-0.43354590
16.07999990	-0.50581380
16.11999990	-0.57808160
16.15999990	-0.65028840
16.19999990	-0.72255620
16.23999990	-0.79482410
16.27999990	-0.86709190
16.31999990	-0.93935970
16.35999990	-0.99356060
16.39999990	-1.06582800
16.43999990	-1.12002900
16.47999990	-1.17416900
16.51999990	-1.21030300
16.55999990	-1.24643700
16.59999990	-1.26450400
16.63999990	-1.26450400
16.67999990	-1.26450400
16.71999990	-1.22837000
16.75999990	-1.19223600
16.79999990	-1.12002900
16.83999990	-1.04776100
16.87999990	-0.95742670
16.91999990	-0.84902500
16.95999990	-0.72255620
16.99999990	-0.61415450
17.03999990	-0.48774680
17.07999990	-0.36127810
17.11999990	-0.23480940
17.15999990	-0.10834070
17.19999990	0.00000000
17.23999990	0.12640770
17.27999989	0.23480940
17.31999989	0.34321110
17.35999989	0.43354590
17.39999989	0.50581380
17.43999989	0.59608750
17.47999989	0.68642230
17.51999989	0.75869010
17.55999989	0.83095790
17.59999989	0.92129280
17.63999989	1.01162800
17.67999989	1.08389500
17.71999989	1.15616300
17.75999989	1.21030300
17.79999989	1.26450400
17.83999989	1.31870500
17.87999989	1.33677200
17.91999989	1.35483900
17.95999989	1.33677200
17.99999989	1.30063800
18.03999989	1.26450400
18.07999989	1.17416900
18.11999989	1.10196200
18.15999989	1.01162800
18.19999989	0.90322580
18.23999989	0.77675710
18.27999989	0.65028840
18.31999989	0.52388070
18.35999989	0.39741200
18.39999989	0.27094330
18.43999989	0.14447460
18.47999989	0.03607288
18.51999989	-0.07220680
18.55999989	-0.16254160
18.59999989	-0.27094330
18.63999989	-0.34321110
18.67999989	-0.43354590
18.71999989	-0.48774680
18.75999989	-0.56001470
18.79999989	-0.63222150
18.83999989	-0.72255620
18.87999989	-0.77675710
18.91999989	-0.84902500
18.95999988	-0.90322580
18.99999988	-0.97549360
19.03999988	-1.04776100
19.07999988	-1.10196200
19.11999988	-1.15616300
19.15999988	-1.21030300
19.19999988	-1.24643700
19.23999988	-1.26450400
19.27999988	-1.28257100
19.31999988	-1.26450400
19.35999988	-1.24643700
19.39999988	-1.19223600
19.43999988	-1.13809600
19.47999988	-1.06582800
19.51999988	-0.97549360
19.55999988	-0.86709190
19.59999988	-0.74062320
19.63999988	-0.63222150
19.67999988	-0.50581380
19.71999988	-0.37934510
19.75999988	-0.25287640
19.79999988	-0.12640770
19.83999988	0.00000000
19.87999988	0.10834070
19.91999988	0.21674250
19.95999988	0.32514420
19.99999988	0.41547900
20.03999988	0.50581380
20.07999988	0.57808160
20.11999988	0.65028840
20.15999988	0.72255620
20.19999988	0.81289100
20.23999988	0.90322580
20.27999988	0.97549360
20.31999988	1.06582800
20.35999988	1.13809600
20.39999988	1.19223600
20.43999988	1.26450400
20.47999988	1.30063800
20.51999988	1.33677200
20.55999988	1.33677200
20.59999987	1.33677200
20.63999987	1.30063800
20.67999987	1.26450400
20.71999987	1.17416900
20.75999987	1.10196200
20.79999987	1.01162800
20.83999987	0.92129280
20.87999987	0.79482410
20.91999987	0.66835530
20.95999987	0.54194770
20.99999987	0.43354590
21.03999987	0.28901030
21.07999987	0.18060850
21.11999987	0.05413984
21.15999987	-0.05413984
21.19999987	-0.14447460
21.23999987	-0.23480940
21.27999987	-0.32514420
21.31999987	-0.39741200
21.35999987	-0.48774680
21.39999987	-0.56001470
21.43999987	-0.61415450
21.47999987	-0.68642230
21.51999987	-0.75869010
21.55999987	-0.83095790
21.59999987	-0.88515880
21.63999987	-0.97549360
21.67999987	-1.02969500
21.71999987	-1.08389500
21.75999987	-1.15616300
21.79999987	-1.19223600
21.83999987	-1.24643700
21.87999987	-1.26450400
21.91999987	-1.26450400
21.95999987	-1.26450400
21.99999987	-1.24643700
22.03999987	-1.19223600
22.07999987	-1.13809600
22.11999987	-1.08389500
22.15999987	-0.97549360
22.19999987	-0.88515880
22.23999986	-0.77675710
22.27999986	-0.65028840
22.31999986	-0.52388070
22.35999986	-0.39741200
22.39999986	-0.28901030
22.43999986	-0.14447460
22.47999986	-0.03607288
22.51999986	0.07220680
22.55999986	0.19867550
22.59999986	0.28901030
22.63999986	0.37934510
22.67999986	0.48774680
22.71999986	0.56001470
22.75999986	0.63222150
22.79999986	0.72255620
22.83999986	0.79482410
22.87999986	0.86709190
22.91999986	0.97549360
22.95999986	1.04776100
22.99999986	1.13809600
23.03999986	1.19223600
23.07999986	1.24643700
23.11999986	1.30063800
23.15999986	1.33677200
23.19999986	1.35483900
23.23999986	1.33677200
23.27999986	1.31870500
23.31999986	1.28257100
23.35999986	1.21030300
23.39999986	1.13809600
23.43999986	1.04776100
23.47999986	0.92129280
23.51999986	0.81289100
23.55999986	0.70448930
23.59999986	0.57808160
23.63999986	0.43354590
23.67999986	0.30707720
23.71999986	0.19867550
23.75999986	0.07220680
23.79999986	-0.01800592
23.83999986	-0.12640770
23.87999985	-0.21674250
23.91999985	-0.30707720
23.95999985	-0.37934510
23.99999985	-0.46967990
24.03999985	-0.54194770
24.07999985	-0.59608750
24.11999985	-0.66835530
24.15999985	-0.74062320
24.19999985	-0.81289100
24.23999985	-0.88515880
24.27999985	-0.95742670
24.31999985	-1.01162800
24.35999985	-1.08389500
24.39999985	-1.13809600
24.43999985	-1.19223600
24.47999985	-1.22837000
24.51999985	-1.26450400
24.55999985	-1.26450400
24.59999985	-1.26450400
24.63999985	-1.24643700
24.67999985	-1.22837000
24.71999985	-1.15616300
24.75999985	-1.10196200
24.79999985	-1.01162800
24.83999985	-0.90322580
24.87999985	-0.79482410
24.91999985	-0.66835530
24.95999985	-0.54194770
24.99999985	-0.43354590
25.03999985	-0.28901030
25.07999985	-0.16254160
25.11999985	-0.05413984
25.15999985	0.07220680
25.19999985	0.18060850
25.23999985	0.28901030
25.27999985	0.36127810
25.31999985	0.45161290
25.35999985	0.54194770
25.39999985	0.61415450
25.43999985	0.70448930
25.47999985	0.77675710
25.51999984	0.86709190
25.55999984	0.93935970
25.59999984	1.02969500
25.63999984	1.10196200
25.67999984	1.15616300
25.71999984	1.22837000
25.75999984	1.30063800
25.79999984	1.33677200
25.83999984	1.33677200
25.87999984	1.33677200
25.91999984	1.31870500
25.95999984	1.30063800
25.99999984	1.22837000
26.03999984	1.15616300
26.07999984	1.06582800
26.11999984	0.95742670
26.15999984	0.84902500
26.19999984	0.72255620
26.23999984	0.59608750
26.27999984	0.46967990
26.31999984	0.34321110
26.35999984	0.21674250
26.39999984	0.09027375
26.43999984	-0.01800592
26.47999984	-0.12640770
26.51999984	-0.21674250
26.55999984	-0.28901030
26.59999984	-0.37934510
26.63999984	-0.45161290
26.67999984	-0.52388070
26.71999984	-0.59608750
26.75999984	-0.65028840
26.79999984	-0.72255620
26.83999984	-0.79482410
26.87999984	-0.86709190
26.91999984	-0.92129280
26.95999984	-1.01162800
26.99999984	-1.06582800
27.03999984	-1.12002900
27.07999984	-1.17416900
27.11999984	-1.22837000
27.15999983	-1.24643700
27.19999983	-1.26450400
27.23999983	-1.28257100
27.27999983	-1.24643700
27.31999983	-1.22837000
27.35999983	-1.17416900
27.39999983	-1.12002900
27.43999983	-1.02969500
27.47999983	-0.93935970
27.51999983	-0.81289100
27.55999983	-0.70448930
27.59999983	-0.57808160
27.63999983	-0.45161290
27.67999983	-0.32514420
27.71999983	-0.19867550
27.75999983	-0.07220680
27.79999983	0.05413984
27.83999983	0.16254160
27.87999983	0.27094330
27.91999983	0.36127810
27.95999983	0.45161290
27.99999983	0.54194770
28.03999983	0.61415450
28.07999983	0.68642230
28.11999983	0.75869010
28.15999983	0.84902500
28.19999983	0.92129280
28.23999983	1.01162800
28.27999983	1.08389500
28.31999983	1.15616300
28.35999983	1.21030300
28.39999983	1.28257100
28.43999983	1.31870500
28.47999983	1.33677200
28.51999983	1.35483900
28.55999983	1.33677200
28.59999983	1.30063800
28.63999983	1.24643700
28.67999983	1.17416900
28.71999983	1.08389500
28.75999983	0.99356060
28.79999982	0.86709190
28.83999982	0.75869010
28.87999982	0.63222150
28.91999982	0.50581380
28.95999982	0.36127810
28.99999982	0.23480940
29.03999982	0.12640770
29.07999982	0.00000000
29.11999982	-0.09027375
29.15999982	-0.19867550
29.19999982	-0.28901030
29.23999982	-0.36127810
29.27999982	-0.43354590
29.31999982	-0.52388070
29.35999982	-0.57808160
29.39999982	-0.65028840
29.43999982	-0.72255620
29.47999982	-0.79482410
29.51999982	-0.84902500
29.55999982	-0.90322580
29.59999982	-0.97549360
29.63999982	-1.04776100
29.67999982	-1.12002900
29.71999982	-1.15616300
29.75999982	-1.21030300
29.79999982	-1.24643700
29.83999982	-1.26450400
29.87999982	-1.26450400
29.91999982	-1.24643700
29.95999982	-1.22837000
29.99999982	-1.19223600
30.03999982	-1.12002900
30.07999982	-1.02969500
30.11999982	-0.95742670
30.15999982	-0.86709190
30.19999982	-0.72255620
30.23999982	-0.61415450
30.27999982	-0.46967990
30.31999982	-0.36127810
30.35999982	-0.21674250
30.39999982	-0.10834070
30.43999982	0.01800592
30.47999981	0.14447460
30.51999981	0.23480940
30.55999981	0.32514420
30.59999981	0.43354590
30.63999981	0.50581380
30.67999981	0.59608750
30.71999981	0.65028840
30.75999981	0.74062320
30.79999981	0.81289100
30.83999981	0.90322580
30.87999981	0.99356060
30.91999981	1.08389500
30.95999981	1.15616300
30.99999981	1.21030300
31.03999981	1.28257100
31.07999981	1.30063800
31.11999981	1.33677200
31.15999981	1.35483900
31.19999981	1.33677200
31.23999981	1.30063800
31.27999981	1.24643700
31.31999981	1.17416900
31.35999981	1.10196200
31.39999981	0.99356060
31.43999981	0.90322580
31.47999981	0.75869010
31.51999981	0.63222150
31.55999981	0.50581380
31.59999981	0.37934510
31.63999981	0.25287640
31.67999981	0.14447460
31.71999981	0.03607288
31.75999981	-0.07220680
31.79999981	-0.16254160
31.83999981	-0.25287640
31.87999981	-0.34321110
31.91999981	-0.41547900
31.95999981	-0.48774680
31.99999981	-0.56001470
32.03999981	-0.63222150
32.07999981	-0.70448930
32.11999980	-0.75869010
32.15999980	-0.83095790
32.19999980	-0.90322580
32.23999980	-0.97549360
32.27999980	-1.02969500
32.31999980	-1.10196200
32.35999980	-1.15616300
32.39999980	-1.19223600
32.43999980	-1.22837000
32.47999980	-1.26450400
32.51999980	-1.26450400
32.55999980	-1.26450400
32.59999980	-1.22837000
32.63999980	-1.19223600
32.67999980	-1.13809600
32.71999980	-1.04776100
32.75999980	-0.95742670
32.79999980	-0.86709190
32.83999980	-0.74062320
32.87999980	-0.63222150
32.91999980	-0.50581380
