Time,Channel A
(us),(V)

0.00000000,-0.28901030
0.04000000,-0.36127810
0.08000000,-0.43354590
0.12000000,-0.52388070
0.16000000,-0.57808160
0.20000000,-0.65028840
0.24000000,-0.72255620
0.28000000,-0.79482410
0.32000000,-0.86709190
0.36000000,-0.92129280
0.40000000,-0.97549360
0.44000000,-1.06582800
0.48000000,-1.12002900
0.52000000,-1.17416900
0.56000000,-1.21030300
0.60000000,-1.24643700
0.64000000,-1.26450400
0.68000000,-1.28257100
0.72000000,-1.26450400
0.76000000,-1.24643700
0.80000000,-1.21030300
0.83999999,-1.13809600
0.87999999,-1.06582800
0.91999999,-0.95742670
0.95999999,-0.86709190
0.99999999,-0.74062320
1.03999999,-0.61415450
1.07999999,-0.48774680
1.11999999,-0.36127810
1.15999999,-0.23480940
1.19999999,-0.10834070
1.23999999,0.01800592
1.27999999,0.12640770
1.31999999,0.23480940
1.35999999,0.34321110
1.39999999,0.43354590
1.43999999,0.50581380
1.47999999,0.59608750
1.51999999,0.66835530
1.55999999,0.75869010
1.59999999,0.83095790
1.63999999,0.92129280
1.67999999,0.99356060
1.71999999,1.06582800
1.75999999,1.13809600
1.79999999,1.21030300
1.83999999,1.26450400
1.87999999,1.30063800
1.91999999,1.33677200
1.95999999,1.35483900
1.99999999,1.33677200
2.03999999,1.30063800
2.07999999,1.26450400
2.11999999,1.19223600
2.15999999,1.12002900
2.19999999,1.01162800
2.23999999,0.90322580
2.27999999,0.79482410
2.31999999,0.65028840
2.35999999,0.54194770
2.39999999,0.41547900
2.43999999,0.28901030
2.47999998,0.14447460
2.51999998,0.03607288
2.55999998,-0.07220680
2.59999998,-0.16254160
2.63999998,-0.27094330
2.67999998,-0.34321110
2.71999998,-0.41547900
2.75999998,-0.50581380
2.79999998,-0.57808160
2.83999998,-0.63222150
2.87999998,-0.70448930
2.91999998,-0.77675710
2.95999998,-0.84902500
2.99999998,-0.90322580
3.03999998,-0.97549360
3.07999998,-1.02969500
3.11999998,-1.10196200
3.15999998,-1.15616300
3.19999998,-1.19223600
3.23999998,-1.24643700
3.27999998,-1.26450400
3.31999998,-1.28257100
3.35999998,-1.26450400
3.39999998,-1.24643700
3.43999998,-1.21030300
3.47999998,-1.15616300
3.51999998,-1.08389500
3.55999998,-0.99356060
3.59999998,-0.88515880
3.63999998,-0.75869010
3.67999998,-0.65028840
3.71999998,-0.52388070
3.75999998,-0.39741200
3.79999998,-0.27094330
3.83999998,-0.14447460
3.87999998,-0.01800592
3.91999998,0.09027375
3.95999998,0.21674250
3.99999998,0.30707720
4.03999998,0.41547900
4.07999998,0.50581380
4.11999997,0.57808160
4.15999997,0.65028840
4.19999997,0.72255620
4.23999997,0.81289100
4.27999997,0.90322580
4.31999997,0.97549360
4.35999997,1.06582800
4.39999997,1.13809600
4.43999997,1.19223600
4.47999997,1.26450400
4.51999997,1.30063800
4.55999997,1.31870500
4.59999997,1.33677200
4.63999997,1.31870500
4.67999997,1.30063800
4.71999997,1.26450400
4.75999997,1.19223600
4.79999997,1.12002900
4.83999997,1.02969500
4.87999997,0.93935970
4.91999997,0.81289100
4.95999997,0.68642230
4.99999997,0.56001470
5.03999997,0.45161290
5.07999997,0.30707720
5.11999997,0.18060850
5.15999997,0.05413984
5.19999997,-0.03607288
5.23999997,-0.12640770
5.27999997,-0.23480940
5.31999997,-0.32514420
5.35999997,-0.39741200
5.39999997,-0.46967990
5.43999997,-0.56001470
5.47999997,-0.63222150
5.51999997,-0.68642230
5.55999997,-0.75869010
5.59999997,-0.83095790
5.63999997,-0.90322580
5.67999997,-0.97549360
5.71999997,-1.02969500
5.75999996,-1.08389500
5.79999996,-1.15616300
5.83999996,-1.19223600
5.87999996,-1.22837000
5.91999996,-1.26450400
5.95999996,-1.28257100
5.99999996,-1.26450400
6.03999996,-1.24643700
6.07999996,-1.21030300
6.11999996,-1.15616300
6.15999996,-1.08389500
6.19999996,-1.01162800
6.23999996,-0.90322580
6.27999996,-0.79482410
6.31999996,-0.66835530
6.35999996,-0.56001470
6.39999996,-0.43354590
6.43999996,-0.28901030
6.47999996,-0.16254160
6.51999996,-0.03607288
6.55999996,0.07220680
6.59999996,0.18060850
6.63999996,0.28901030
6.67999996,0.37934510
6.71999996,0.45161290
6.75999996,0.56001470
6.79999996,0.63222150
6.83999996,0.70448930
6.87999996,0.79482410
6.91999996,0.86709190
6.95999996,0.95742670
6.99999996,1.02969500
7.03999996,1.12002900
7.07999996,1.19223600
7.11999996,1.24643700
7.15999996,1.30063800
7.19999996,1.31870500
7.23999996,1.33677200
7.27999996,1.33677200
7.31999996,1.31870500
7.35999996,1.28257100
7.39999996,1.21030300
7.43999995,1.15616300
7.47999995,1.06582800
7.51999995,0.93935970
7.55999995,0.83095790
7.59999995,0.72255620
7.63999995,0.57808160
7.67999995,0.46967990
7.71999995,0.32514420
7.75999995,0.21674250
7.79999995,0.07220680
7.83999995,-0.01800592
7.87999995,-0.12640770
7.91999995,-0.21674250
7.95999995,-0.30707720
7.99999995,-0.37934510
8.03999995,-0.45161290
8.07999995,-0.54194770
8.11999995,-0.59608750
8.15999995,-0.66835530
8.19999995,-0.72255620
8.23999995,-0.81289100
8.27999995,-0.86709190
8.31999995,-0.93935970
8.35999995,-1.01162800
8.39999995,-1.08389500
8.43999995,-1.13809600
8.47999995,-1.17416900
8.51999995,-1.22837000
8.55999995,-1.24643700
8.59999995,-1.28257100
8.63999995,-1.26450400
8.67999995,-1.26450400
8.71999995,-1.22837000
8.75999995,-1.17416900
8.79999995,-1.10196200
8.83999995,-1.01162800
8.87999995,-0.92129280
8.91999995,-0.81289100
8.95999995,-0.68642230
8.99999995,-0.57808160
9.03999995,-0.45161290
9.07999994,-0.32514420
9.11999994,-0.19867550
9.15999994,-0.07220680
9.19999994,0.05413984
9.23999994,0.16254160
9.27999994,0.25287640
9.31999994,0.36127810
9.35999994,0.45161290
9.39999994,0.54194770
9.43999994,0.61415450
9.47999994,0.70448930
9.51999994,0.77675710
9.55999994,0.84902500
9.59999994,0.93935970
9.63999994,1.01162800
9.67999994,1.08389500
9.71999994,1.15616300
9.75999994,1.22837000
9.79999994,1.28257100
9.83999994,1.31870500
9.87999994,1.33677200
9.91999994,1.33677200
9.95999994,1.31870500
9.99999994,1.28257100
10.03999994,1.22837000
10.07999994,1.15616300
10.11999994,1.08389500
10.15999994,0.97549360
10.19999994,0.84902500
10.23999994,0.74062320
10.27999994,0.61415450
10.31999994,0.48774680
10.35999994,0.36127810
10.39999994,0.23480940
10.43999994,0.12640770
10.47999994,0.00000000
10.51999994,-0.09027375
10.55999994,-0.19867550
10.59999994,-0.28901030
10.63999994,-0.36127810
10.67999994,-0.45161290
10.71999993,-0.52388070
10.75999993,-0.59608750
10.79999993,-0.65028840
10.83999993,-0.72255620
10.87999993,-0.79482410
10.91999993,-0.86709190
10.95999993,-0.93935970
10.99999993,-1.01162800
11.03999993,-1.06582800
11.07999993,-1.13809600
11.11999993,-1.17416900
11.15999993,-1.22837000
11.19999993,-1.24643700
11.23999993,-1.26450400
11.27999993,-1.26450400
11.31999993,-1.24643700
11.35999993,-1.22837000
11.39999993,-1.17416900
11.43999993,-1.12002900
11.47999993,-1.02969500
11.51999993,-0.93935970
11.55999993,-0.84902500
11.59999993,-0.72255620
11.63999993,-0.61415450
11.67999993,-0.46967990
11.71999993,-0.36127810
11.75999993,-0.23480940
11.79999993,-0.10834070
11.83999993,0.01800592
11.87999993,0.12640770
11.91999993,0.23480940
11.95999993,0.34321110
11.99999993,0.43354590
12.03999993,0.50581380
12.07999993,0.59608750
12.11999993,0.68642230
12.15999993,0.75869010
12.19999993,0.83095790
12.23999993,0.92129280
12.27999993,1.01162800
12.31999993,1.08389500
12.35999992,1.15616300
12.39999992,1.22837000
12.43999992,1.28257100
12.47999992,1.31870500
12.51999992,1.33677200
12.55999992,1.33677200
12.59999992,1.33677200
12.63999992,1.30063800
12.67999992,1.22837000
12.71999992,1.17416900
12.75999992,1.08389500
12.79999992,0.99356060
12.83999992,0.86709190
12.87999992,0.75869010
12.91999992,0.63222150
12.95999992,0.50581380
12.99999992,0.37934510
13.03999992,0.27094330
13.07999992,0.14447460
13.11999992,0.01800592
13.15999992,-0.07220680
13.19999992,-0.18060850
13.23999992,-0.27094330
13.27999992,-0.36127810
13.31999992,-0.43354590
13.35999992,-0.50581380
13.39999992,-0.57808160
13.43999992,-0.65028840
13.47999992,-0.70448930
13.51999992,-0.77675710
13.55999992,-0.84902500
13.59999992,-0.92129280
13.63999992,-0.97549360
13.67999992,-1.04776100
13.71999992,-1.10196200
13.75999992,-1.17416900
13.79999992,-1.21030300
13.83999992,-1.24643700
13.87999992,-1.26450400
13.91999992,-1.28257100
13.95999992,-1.26450400
13.99999991,-1.22837000
14.03999991,-1.19223600
14.07999991,-1.13809600
14.11999991,-1.04776100
14.15999991,-0.95742670
14.19999991,-0.86709190
14.23999991,-0.74062320
14.27999991,-0.61415450
14.31999991,-0.48774680
14.35999991,-0.36127810
14.39999991,-0.23480940
14.43999991,-0.10834070
14.47999991,0.00000000
14.51999991,0.12640770
14.55999991,0.23480940
14.59999991,0.32514420
14.63999991,0.41547900
14.67999991,0.50581380
14.71999991,0.57808160
14.75999991,0.65028840
14.79999991,0.74062320
14.83999991,0.81289100
14.87999991,0.90322580
14.91999991,0.99356060
14.95999991,1.04776100
14.99999991,1.12002900
15.03999991,1.19223600
15.07999991,1.28257100
15.11999991,1.30063800
15.15999991,1.33677200
15.19999991,1.33677200
15.23999991,1.33677200
15.27999991,1.31870500
15.31999991,1.26450400
15.35999991,1.19223600
15.39999991,1.12002900
15.43999991,1.01162800
15.47999991,0.92129280
15.51999991,0.79482410
15.55999991,0.66835530
15.59999991,0.54194770
15.63999990,0.41547900
15.67999990,0.28901030
15.71999990,0.14447460
15.75999990,0.05413984
15.79999990,-0.07220680
15.83999990,-0.16254160
15.87999990,-0.25287640
15.91999990,-0.34321110
15.95999990,-0.41547900
15.99999990,-0.48774680
16.03999990,-0.56001470
16.07999990,-0.61415450
16.11999990,-0.70448930
16.15999990,-0.75869010
16.19999990,-0.83095790
16.23999990,-0.88515880
16.27999990,-0.95742670
16.31999990,-1.02969500
16.35999990,-1.08389500
16.39999990,-1.15616300
16.43999990,-1.19223600
16.47999990,-1.24643700
16.51999990,-1.26450400
16.55999990,-1.26450400
16.59999990,-1.26450400
16.63999990,-1.24643700
16.67999990,-1.21030300
16.71999990,-1.15616300
16.75999990,-1.08389500
16.79999990,-0.97549360
16.83999990,-0.88515880
16.87999990,-0.77675710
16.91999990,-0.65028840
16.95999990,-0.52388070
16.99999990,-0.39741200
17.03999990,-0.27094330
17.07999990,-0.12640770
17.11999990,-0.01800592
17.15999990,0.09027375
17.19999990,0.21674250
17.23999990,0.30707720
17.27999989,0.41547900
17.31999989,0.48774680
17.35999989,0.57808160
17.39999989,0.65028840
17.43999989,0.72255620
17.47999989,0.79482410
17.51999989,0.88515880
17.55999989,0.97549360
17.59999989,1.04776100
17.63999989,1.12002900
17.67999989,1.19223600
17.71999989,1.24643700
17.75999989,1.30063800
17.79999989,1.33677200
17.83999989,1.35483900
17.87999989,1.33677200
17.91999989,1.31870500
17.95999989,1.28257100
17.99999989,1.21030300
18.03999989,1.13809600
18.07999989,1.04776100
18.11999989,0.93935970
18.15999989,0.81289100
18.19999989,0.70448930
18.23999989,0.57808160
18.27999989,0.43354590
18.31999989,0.30707720
18.35999989,0.18060850
18.39999989,0.05413984
18.43999989,-0.03607288
18.47999989,-0.14447460
18.51999989,-0.25287640
18.55999989,-0.32514420
18.59999989,-0.39741200
18.63999989,-0.46967990
18.67999989,-0.56001470
18.71999989,-0.61415450
18.75999989,-0.68642230
18.79999989,-0.74062320
18.83999989,-0.81289100
18.87999989,-0.88515880
18.91999989,-0.95742670
18.95999988,-1.01162800
18.99999988,-1.08389500
19.03999988,-1.13809600
19.07999988,-1.17416900
19.11999988,-1.22837000
19.15999988,-1.24643700
19.19999988,-1.26450400
19.23999988,-1.26450400
19.27999988,-1.24643700
19.31999988,-1.21030300
19.35999988,-1.15616300
19.39999988,-1.08389500
19.43999988,-1.01162800
19.47999988,-0.90322580
19.51999988,-0.79482410
19.55999988,-0.68642230
19.59999988,-0.56001470
19.63999988,-0.43354590
19.67999988,-0.28901030
19.71999988,-0.16254160
19.75999988,-0.03607288
19.79999988,0.07220680
19.83999988,0.18060850
19.87999988,0.27094330
19.91999988,0.36127810
19.95999988,0.46967990
19.99999988,0.56001470
20.03999988,0.63222150
20.07999988,0.72255620
20.11999988,0.79482410
20.15999988,0.86709190
20.19999988,0.93935970
20.23999988,1.02969500
20.27999988,1.10196200
20.31999988,1.17416900
20.35999988,1.24643700
20.39999988,1.28257100
20.43999988,1.31870500
20.47999988,1.33677200
20.51999988,1.33677200
20.55999988,1.31870500
20.59999987,1.28257100
20.63999987,1.22837000
20.67999987,1.13809600
20.71999987,1.06582800
20.75999987,0.93935970
20.79999987,0.83095790
20.83999987,0.72255620
20.87999987,0.57808160
20.91999987,0.46967990
20.95999987,0.34321110
20.99999987,0.21674250
21.03999987,0.09027375
21.07999987,-0.01800592
21.11999987,-0.10834070
21.15999987,-0.21674250
21.19999987,-0.28901030
21.23999987,-0.37934510
21.27999987,-0.45161290
21.31999987,-0.52388070
21.35999987,-0.59608750
21.39999987,-0.66835530
21.43999987,-0.72255620
21.47999987,-0.79482410
21.51999987,-0.88515880
21.55999987,-0.93935970
21.59999987,-1.01162800
21.63999987,-1.08389500
21.67999987,-1.13809600
21.71999987,-1.17416900
21.75999987,-1.22837000
21.79999987,-1.24643700
21.83999987,-1.26450400
21.87999987,-1.26450400
21.91999987,-1.24643700
21.95999987,-1.22837000
21.99999987,-1.17416900
22.03999987,-1.10196200
22.07999987,-1.01162800
22.11999987,-0.92129280
22.15999987,-0.81289100
22.19999987,-0.68642230
22.23999986,-0.57808160
22.27999986,-0.45161290
22.31999986,-0.32514420
22.35999986,-0.21674250
22.39999986,-0.07220680
22.43999986,0.03607288
22.47999986,0.14447460
22.51999986,0.25287640
22.55999986,0.36127810
22.59999986,0.43354590
22.63999986,0.52388070
22.67999986,0.61415450
22.71999986,0.68642230
22.75999986,0.75869010
22.79999986,0.84902500
22.83999986,0.93935970
22.87999986,1.01162800
22.91999986,1.10196200
22.95999986,1.17416900
22.99999986,1.22837000
23.03999986,1.28257100
23.07999986,1.31870500
23.11999986,1.33677200
23.15999986,1.33677200
23.19999986,1.33677200
23.23999986,1.30063800
23.27999986,1.22837000
23.31999986,1.15616300
23.35999986,1.08389500
23.39999986,0.97549360
23.43999986,0.86709190
23.47999986,0.74062320
23.51999986,0.59608750
23.55999986,0.48774680
23.59999986,0.36127810
23.63999986,0.23480940
23.67999986,0.12640770
23.71999986,0.00000000
23.75999986,-0.09027375
23.79999986,-0.19867550
23.83999986,-0.28901030
23.87999985,-0.36127810
23.91999985,-0.43354590
23.95999985,-0.50581380
23.99999985,-0.57808160
24.03999985,-0.65028840
24.07999985,-0.72255620
24.11999985,-0.79482410
24.15999985,-0.84902500
24.19999985,-0.92129280
24.23999985,-0.99356060
24.27999985,-1.04776100
24.31999985,-1.10196200
24.35999985,-1.15616300
24.39999985,-1.21030300
24.43999985,-1.24643700
24.47999985,-1.26450400
24.51999985,-1.26450400
24.55999985,-1.26450400
24.59999985,-1.22837000
24.63999985,-1.19223600
24.67999985,-1.12002900
24.71999985,-1.04776100
24.75999985,-0.93935970
24.79999985,-0.84902500
24.83999985,-0.74062320
24.87999985,-0.61415450
24.91999985,-0.46967990
24.95999985,-0.34321110
24.99999985,-0.21674250
25.03999985,-0.09027375
25.07999985,0.03607288
25.11999985,0.14447460
25.15999985,0.23480940
25.19999985,0.34321110
25.23999985,0.43354590
25.27999985,0.50581380
25.31999985,0.57808160
25.35999985,0.66835530
25.39999985,0.75869010
25.43999985,0.83095790
25.47999985,0.92129280
25.51999984,0.99356060
25.55999984,1.06582800
25.59999984,1.13809600
25.63999984,1.21030300
25.67999984,1.26450400
25.71999984,1.30063800
25.75999984,1.33677200
25.79999984,1.33677200
25.83999984,1.33677200
25.87999984,1.30063800
25.91999984,1.26450400
25.95999984,1.19223600
25.99999984,1.10196200
26.03999984,1.01162800
26.07999984,0.90322580
26.11999984,0.77675710
26.15999984,0.65028840
26.19999984,0.52388070
26.23999984,0.39741200
26.27999984,0.27094330
26.31999984,0.14447460
26.35999984,0.01800592
26.39999984,-0.07220680
26.43999984,-0.18060850
26.47999984,-0.27094330
26.51999984,-0.36127810
26.55999984,-0.43354590
26.59999984,-0.50581380
26.63999984,-0.57808160
26.67999984,-0.63222150
26.71999984,-0.70448930
26.75999984,-0.77675710
26.79999984,-0.84902500
26.83999984,-0.90322580
26.87999984,-0.97549360
26.91999984,-1.02969500
26.95999984,-1.10196200
26.99999984,-1.15616300
27.03999984,-1.19223600
27.07999984,-1.22837000
27.11999984,-1.24643700
27.15999983,-1.26450400
27.19999983,-1.26450400
27.23999983,-1.22837000
27.27999983,-1.19223600
27.31999983,-1.13809600
27.35999983,-1.06582800
27.39999983,-0.97549360
27.43999983,-0.86709190
27.47999983,-0.75869010
27.51999983,-0.63222150
27.55999983,-0.50581380
27.59999983,-0.37934510
27.63999983,-0.25287640
27.67999983,-0.14447460
27.71999983,0.00000000
27.75999983,0.10834070
27.79999983,0.21674250
27.83999983,0.32514420
27.87999983,0.43354590
27.91999983,0.50581380
27.95999983,0.57808160
27.99999983,0.65028840
28.03999983,0.74062320
28.07999983,0.83095790
28.11999983,0.90322580
28.15999983,0.99356060
28.19999983,1.06582800
28.23999983,1.13809600
28.27999983,1.21030300
28.31999983,1.26450400
28.35999983,1.30063800
28.39999983,1.33677200
28.43999983,1.33677200
28.47999983,1.33677200
28.51999983,1.30063800
28.55999983,1.24643700
28.59999983,1.19223600
28.63999983,1.12002900
28.67999983,1.01162800
28.71999983,0.90322580
28.75999983,0.79482410
28.79999982,0.68642230
28.83999982,0.54194770
28.87999982,0.41547900
28.91999982,0.28901030
28.95999982,0.18060850
28.99999982,0.05413984
29.03999982,-0.05413984
29.07999982,-0.14447460
29.11999982,-0.23480940
29.15999982,-0.32514420
29.19999982,-0.41547900
29.23999982,-0.48774680
29.27999982,-0.56001470
29.31999982,-0.63222150
29.35999982,-0.70448930
29.39999982,-0.75869010
29.43999982,-0.83095790
29.47999982,-0.90322580
29.51999982,-0.97549360
29.55999982,-1.02969500
29.59999982,-1.10196200
29.63999982,-1.15616300
29.67999982,-1.19223600
29.71999982,-1.24643700
29.75999982,-1.26450400
29.79999982,-1.28257100
29.83999982,-1.26450400
29.87999982,-1.24643700
29.91999982,-1.22837000
29.95999982,-1.15616300
29.99999982,-1.08389500
30.03999982,-0.99356060
30.07999982,-0.88515880
30.11999982,-0.77675710
30.15999982,-0.65028840
30.19999982,-0.52388070
30.23999982,-0.41547900
30.27999982,-0.27094330
30.31999982,-0.14447460
30.35999982,-0.03607288
30.39999982,0.09027375
30.43999982,0.19867550
30.47999981,0.28901030
30.51999981,0.37934510
30.55999981,0.46967990
30.59999981,0.56001470
30.63999981,0.63222150
30.67999981,0.72255620
30.71999981,0.79482410
30.75999981,0.86709190
30.79999981,0.97549360
30.83999981,1.04776100
30.87999981,1.13809600
30.91999981,1.19223600
30.95999981,1.26450400
30.99999981,1.30063800
31.03999981,1.33677200
31.07999981,1.35483900
31.11999981,1.35483900
31.15999981,1.31870500
31.19999981,1.28257100
31.23999981,1.22837000
31.27999981,1.13809600
31.31999981,1.04776100
31.35999981,0.93935970
31.39999981,0.83095790
31.43999981,0.70448930
31.47999981,0.57808160
31.51999981,0.43354590
31.55999981,0.30707720
31.59999981,0.18060850
31.63999981,0.07220680
31.67999981,-0.03607288
31.71999981,-0.12640770
31.75999981,-0.23480940
31.79999981,-0.30707720
31.83999981,-0.39741200
31.87999981,-0.45161290
31.91999981,-0.54194770
31.95999981,-0.59608750
31.99999981,-0.66835530
32.03999981,-0.74062320
32.07999981,-0.81289100
32.11999980,-0.88515880
32.15999980,-0.95742670
32.19999980,-1.02969500
32.23999980,-1.08389500
32.27999980,-1.15616300
32.31999980,-1.19223600
32.35999980,-1.22837000
32.39999980,-1.26450400
32.43999980,-1.28257100
32.47999980,-1.28257100
32.51999980,-1.26450400
32.55999980,-1.22837000
32.59999980,-1.15616300
32.63999980,-1.10196200
32.67999980,-1.01162800
32.71999980,-0.90322580
32.75999980,-0.79482410
32.79999980,-0.66835530
32.83999980,-0.56001470
32.87999980,-0.43354590
32.91999980,-0.28901030
