Time,Channel A
(us),(V)

0.00000000,-1.13809600
0.04000000,-1.19223600
0.08000000,-1.22837000
0.12000000,-1.24643700
0.16000000,-1.26450400
0.20000000,-1.26450400
0.24000000,-1.24643700
0.28000000,-1.21030300
0.32000000,-1.15616300
0.36000000,-1.08389500
0.40000000,-1.01162800
0.44000000,-0.90322580
0.48000000,-0.79482410
0.52000000,-0.66835530
0.56000000,-0.54194770
0.60000000,-0.41547900
0.64000000,-0.28901030
0.68000000,-0.14447460
0.72000000,-0.03607288
0.76000000,0.07220680
0.80000000,0.19867550
0.83999999,0.28901030
0.87999999,0.39741200
0.91999999,0.48774680
0.95999999,0.56001470
0.99999999,0.65028840
1.03999999,0.72255620
1.07999999,0.79482410
1.11999999,0.86709190
1.15999999,0.95742670
1.19999999,1.02969500
1.23999999,1.10196200
1.27999999,1.17416900
1.31999999,1.24643700
1.35999999,1.30063800
1.39999999,1.33677200
1.43999999,1.33677200
1.47999999,1.33677200
1.51999999,1.31870500
1.55999999,1.28257100
1.59999999,1.21030300
1.63999999,1.13809600
1.67999999,1.06582800
1.71999999,0.93935970
1.75999999,0.83095790
1.79999999,0.72255620
1.83999999,0.57808160
1.87999999,0.46967990
1.91999999,0.32514420
1.95999999,0.21674250
1.99999999,0.07220680
2.03999999,-0.01800592
2.07999999,-0.12640770
2.11999999,-0.21674250
2.15999999,-0.30707720
2.19999999,-0.37934510
2.23999999,-0.46967990
2.27999999,-0.54194770
2.31999999,-0.59608750
2.35999999,-0.66835530
2.39999999,-0.74062320
2.43999999,-0.79482410
2.47999998,-0.88515880
2.51999998,-0.93935970
2.55999998,-1.01162800
2.59999998,-1.08389500
2.63999998,-1.13809600
2.67999998,-1.17416900
2.71999998,-1.22837000
2.75999998,-1.26450400
2.79999998,-1.28257100
2.83999998,-1.26450400
2.87999998,-1.24643700
2.91999998,-1.22837000
2.95999998,-1.15616300
2.99999998,-1.10196200
3.03999998,-1.01162800
3.07999998,-0.92129280
3.11999998,-0.81289100
3.15999998,-0.68642230
3.19999998,-0.57808160
3.23999998,-0.43354590
3.27999998,-0.30707720
3.31999998,-0.18060850
3.35999998,-0.05413984
3.39999998,0.05413984
3.43999998,0.16254160
3.47999998,0.27094330
3.51999998,0.36127810
3.55999998,0.45161290
3.59999998,0.54194770
3.63999998,0.63222150
3.67999998,0.70448930
3.71999998,0.77675710
3.75999998,0.84902500
3.79999998,0.92129280
3.83999998,1.01162800
3.87999998,1.08389500
3.91999998,1.15616300
3.95999998,1.22837000
3.99999998,1.28257100
4.03999998,1.30063800
4.07999998,1.33677200
4.11999997,1.33677200
4.15999997,1.31870500
4.19999997,1.30063800
4.23999997,1.22837000
4.27999997,1.15616300
4.31999997,1.06582800
4.35999997,0.97549360
4.39999997,0.84902500
4.43999997,0.74062320
4.47999997,0.61415450
4.51999997,0.48774680
4.55999997,0.34321110
4.59999997,0.21674250
4.63999997,0.10834070
4.67999997,-0.01800592
4.71999997,-0.10834070
4.75999997,-0.19867550
4.79999997,-0.28901030
4.83999997,-0.36127810
4.87999997,-0.45161290
4.91999997,-0.52388070
4.95999997,-0.57808160
4.99999997,-0.65028840
5.03999997,-0.72255620
5.07999997,-0.79482410
5.11999997,-0.84902500
5.15999997,-0.93935970
5.19999997,-0.99356060
5.23999997,-1.06582800
5.27999997,-1.12002900
5.31999997,-1.17416900
5.35999997,-1.22837000
5.39999997,-1.24643700
5.43999997,-1.26450400
5.47999997,-1.28257100
5.51999997,-1.26450400
5.55999997,-1.22837000
5.59999997,-1.19223600
5.63999997,-1.12002900
5.67999997,-1.02969500
5.71999997,-0.93935970
5.75999996,-0.83095790
5.79999996,-0.72255620
5.83999996,-0.59608750
5.87999996,-0.46967990
5.91999996,-0.32514420
5.95999996,-0.21674250
5.99999996,-0.07220680
6.03999996,0.03607288
6.07999996,0.14447460
6.11999996,0.25287640
6.15999996,0.34321110
6.19999996,0.43354590
6.23999996,0.52388070
6.27999996,0.59608750
6.31999996,0.68642230
6.35999996,0.75869010
6.39999996,0.83095790
6.43999996,0.92129280
6.47999996,0.99356060
6.51999996,1.08389500
6.55999996,1.15616300
6.59999996,1.21030300
6.63999996,1.26450400
6.67999996,1.31870500
6.71999996,1.33677200
6.75999996,1.33677200
6.79999996,1.33677200
6.83999996,1.30063800
6.87999996,1.24643700
6.91999996,1.17416900
6.95999996,1.10196200
6.99999996,0.99356060
7.03999996,0.88515880
7.07999996,0.75869010
7.11999996,0.63222150
7.15999996,0.50581380
7.19999996,0.36127810
7.23999996,0.23480940
7.27999996,0.12640770
7.31999996,0.00000000
7.35999996,-0.09027375
7.39999996,-0.19867550
7.43999995,-0.28901030
7.47999995,-0.36127810
7.51999995,-0.43354590
7.55999995,-0.50581380
7.59999995,-0.57808160
7.63999995,-0.65028840
7.67999995,-0.70448930
7.71999995,-0.77675710
7.75999995,-0.84902500
7.79999995,-0.90322580
7.83999995,-0.97549360
7.87999995,-1.04776100
7.91999995,-1.10196200
7.95999995,-1.17416900
7.99999995,-1.19223600
8.03999995,-1.24643700
8.07999995,-1.26450400
8.11999995,-1.28257100
8.15999995,-1.26450400
8.19999995,-1.24643700
8.23999995,-1.19223600
8.27999995,-1.13809600
8.31999995,-1.06582800
8.35999995,-0.97549360
8.39999995,-0.86709190
8.43999995,-0.74062320
8.47999995,-0.63222150
8.51999995,-0.50581380
8.55999995,-0.36127810
8.59999995,-0.23480940
8.63999995,-0.10834070
8.67999995,0.01800592
8.71999995,0.12640770
8.75999995,0.23480940
8.79999995,0.34321110
8.83999995,0.43354590
8.87999995,0.50581380
8.91999995,0.57808160
8.95999995,0.65028840
8.99999995,0.75869010
9.03999995,0.83095790
9.07999994,0.90322580
9.11999994,0.99356060
9.15999994,1.06582800
9.19999994,1.13809600
9.23999994,1.21030300
9.27999994,1.28257100
9.31999994,1.30063800
9.35999994,1.33677200
9.39999994,1.35483900
9.43999994,1.33677200
9.47999994,1.30063800
9.51999994,1.26450400
9.55999994,1.19223600
9.59999994,1.10196200
9.63999994,1.01162800
9.67999994,0.90322580
9.71999994,0.77675710
9.75999994,0.65028840
9.79999994,0.54194770
9.83999994,0.39741200
9.87999994,0.28901030
9.91999994,0.16254160
9.95999994,0.03607288
9.99999994,-0.07220680
10.03999994,-0.16254160
10.07999994,-0.25287640
10.11999994,-0.34321110
10.15999994,-0.41547900
10.19999994,-0.50581380
10.23999994,-0.56001470
10.27999994,-0.65028840
10.31999994,-0.70448930
10.35999994,-0.77675710
10.39999994,-0.84902500
10.43999994,-0.92129280
10.47999994,-0.97549360
10.51999994,-1.04776100
10.55999994,-1.10196200
10.59999994,-1.15616300
10.63999994,-1.21030300
10.67999994,-1.22837000
10.71999993,-1.26450400
10.75999993,-1.26450400
10.79999993,-1.26450400
10.83999993,-1.22837000
10.87999993,-1.19223600
10.91999993,-1.15616300
10.95999993,-1.06582800
10.99999993,-0.97549360
11.03999993,-0.86709190
11.07999993,-0.77675710
11.11999993,-0.65028840
11.15999993,-0.52388070
11.19999993,-0.39741200
11.23999993,-0.25287640
11.27999993,-0.14447460
11.31999993,-0.01800592
11.35999993,0.10834070
11.39999993,0.21674250
11.43999993,0.30707720
11.47999993,0.41547900
11.51999993,0.48774680
11.55999993,0.57808160
11.59999993,0.65028840
11.63999993,0.74062320
11.67999993,0.79482410
11.71999993,0.88515880
11.75999993,0.97549360
11.79999993,1.04776100
11.83999993,1.13809600
11.87999993,1.19223600
11.91999993,1.26450400
11.95999993,1.30063800
11.99999993,1.33677200
12.03999993,1.35483900
12.07999993,1.33677200
12.11999993,1.30063800
12.15999993,1.28257100
12.19999993,1.21030300
12.23999993,1.12002900
12.27999993,1.02969500
12.31999993,0.92129280
12.35999992,0.79482410
12.39999992,0.68642230
12.43999992,0.56001470
12.47999992,0.43354590
12.51999992,0.30707720
12.55999992,0.18060850
12.59999992,0.05413984
12.63999992,-0.05413984
12.67999992,-0.14447460
12.71999992,-0.23480940
12.75999992,-0.32514420
12.79999992,-0.39741200
12.83999992,-0.46967990
12.87999992,-0.54194770
12.91999992,-0.61415450
12.95999992,-0.68642230
12.99999992,-0.74062320
13.03999992,-0.81289100
13.07999992,-0.88515880
13.11999992,-0.95742670
13.15999992,-1.02969500
13.19999992,-1.08389500
13.23999992,-1.15616300
13.27999992,-1.21030300
13.31999992,-1.22837000
13.35999992,-1.26450400
13.39999992,-1.28257100
13.43999992,-1.28257100
13.47999992,-1.24643700
13.51999992,-1.21030300
13.55999992,-1.15616300
13.59999992,-1.10196200
13.63999992,-1.01162800
13.67999992,-0.90322580
13.71999992,-0.79482410
13.75999992,-0.66835530
13.79999992,-0.56001470
13.83999992,-0.41547900
13.87999992,-0.28901030
13.91999992,-0.16254160
13.95999992,-0.03607288
13.99999991,0.09027375
14.03999991,0.19867550
14.07999991,0.28901030
14.11999991,0.39741200
14.15999991,0.46967990
14.19999991,0.56001470
14.23999991,0.63222150
14.27999991,0.72255620
14.31999991,0.79482410
14.35999991,0.86709190
14.39999991,0.93935970
14.43999991,1.02969500
14.47999991,1.10196200
14.51999991,1.17416900
14.55999991,1.22837000
14.59999991,1.28257100
14.63999991,1.31870500
14.67999991,1.33677200
14.71999991,1.33677200
14.75999991,1.31870500
14.79999991,1.28257100
14.83999991,1.22837000
14.87999991,1.15616300
14.91999991,1.06582800
14.95999991,0.95742670
14.99999991,0.83095790
15.03999991,0.72255620
15.07999991,0.59608750
15.11999991,0.46967990
15.15999991,0.32514420
15.19999991,0.19867550
15.23999991,0.07220680
15.27999991,-0.01800592
15.31999991,-0.12640770
15.35999991,-0.23480940
15.39999991,-0.32514420
15.43999991,-0.39741200
15.47999991,-0.46967990
15.51999991,-0.54194770
15.55999991,-0.61415450
15.59999991,-0.66835530
15.63999990,-0.74062320
15.67999990,-0.81289100
15.71999990,-0.86709190
15.75999990,-0.93935970
15.79999990,-1.01162800
15.83999990,-1.08389500
15.87999990,-1.13809600
15.91999990,-1.17416900
15.95999990,-1.22837000
15.99999990,-1.24643700
16.03999990,-1.26450400
16.07999990,-1.26450400
16.11999990,-1.24643700
16.15999990,-1.22837000
16.19999990,-1.17416900
16.23999990,-1.12002900
16.27999990,-1.02969500
16.31999990,-0.93935970
16.35999990,-0.83095790
16.39999990,-0.70448930
16.43999990,-0.57808160
16.47999990,-0.45161290
16.51999990,-0.32514420
16.55999990,-0.18060850
16.59999990,-0.07220680
16.63999990,0.05413984
16.67999990,0.16254160
16.71999990,0.28901030
16.75999990,0.37934510
16.79999990,0.46967990
16.83999990,0.54194770
16.87999990,0.63222150
16.91999990,0.70448930
16.95999990,0.77675710
16.99999990,0.86709190
17.03999990,0.93935970
17.07999990,1.01162800
17.11999990,1.08389500
17.15999990,1.15616300
17.19999990,1.22837000
17.23999990,1.28257100
17.27999989,1.31870500
17.31999989,1.33677200
17.35999989,1.33677200
17.39999989,1.33677200
17.43999989,1.30063800
17.47999989,1.22837000
17.51999989,1.15616300
17.55999989,1.08389500
17.59999989,0.99356060
17.63999989,0.86709190
17.67999989,0.75869010
17.71999989,0.61415450
17.75999989,0.48774680
17.79999989,0.36127810
17.83999989,0.23480940
17.87999989,0.10834070
17.91999989,0.00000000
17.95999989,-0.10834070
17.99999989,-0.21674250
18.03999989,-0.28901030
18.07999989,-0.37934510
18.11999989,-0.45161290
18.15999989,-0.52388070
18.19999989,-0.59608750
18.23999989,-0.66835530
18.27999989,-0.72255620
18.31999989,-0.79482410
18.35999989,-0.86709190
18.39999989,-0.93935970
18.43999989,-0.99356060
18.47999989,-1.06582800
18.51999989,-1.12002900
18.55999989,-1.17416900
18.59999989,-1.22837000
18.63999989,-1.24643700
18.67999989,-1.26450400
18.71999989,-1.28257100
18.75999989,-1.26450400
18.79999989,-1.22837000
18.83999989,-1.19223600
18.87999989,-1.12002900
18.91999989,-1.04776100
18.95999988,-0.95742670
18.99999988,-0.83095790
19.03999988,-0.72255620
19.07999988,-0.59608750
19.11999988,-0.46967990
19.15999988,-0.36127810
19.19999988,-0.21674250
19.23999988,-0.09027375
19.27999988,0.01800592
19.31999988,0.14447460
19.35999988,0.25287640
19.39999988,0.34321110
19.43999988,0.43354590
19.47999988,0.52388070
19.51999988,0.61415450
19.55999988,0.68642230
19.59999988,0.75869010
19.63999988,0.84902500
19.67999988,0.92129280
19.71999988,1.01162800
19.75999988,1.08389500
19.79999988,1.15616300
19.83999988,1.22837000
19.87999988,1.28257100
19.91999988,1.31870500
19.95999988,1.33677200
19.99999988,1.35483900
20.03999988,1.33677200
20.07999988,1.30063800
20.11999988,1.24643700
20.15999988,1.17416900
20.19999988,1.10196200
20.23999988,1.01162800
20.27999988,0.88515880
20.31999988,0.77675710
20.35999988,0.63222150
20.39999988,0.52388070
20.43999988,0.37934510
20.47999988,0.25287640
20.51999988,0.14447460
20.55999988,0.01800592
20.59999987,-0.07220680
20.63999987,-0.18060850
20.67999987,-0.27094330
20.71999987,-0.36127810
20.75999987,-0.43354590
20.79999987,-0.50581380
20.83999987,-0.57808160
20.87999987,-0.65028840
20.91999987,-0.72255620
20.95999987,-0.77675710
20.99999987,-0.86709190
21.03999987,-0.92129280
21.07999987,-0.99356060
21.11999987,-1.04776100
21.15999987,-1.10196200
21.19999987,-1.17416900
21.23999987,-1.21030300
21.27999987,-1.24643700
21.31999987,-1.26450400
21.35999987,-1.26450400
21.39999987,-1.26450400
21.43999987,-1.22837000
21.47999987,-1.19223600
21.51999987,-1.13809600
21.55999987,-1.04776100
21.59999987,-0.95742670
21.63999987,-0.86709190
21.67999987,-0.74062320
21.71999987,-0.61415450
21.75999987,-0.50581380
21.79999987,-0.37934510
21.83999987,-0.23480940
21.87999987,-0.10834070
21.91999987,0.00000000
21.95999987,0.12640770
21.99999987,0.23480940
22.03999987,0.32514420
22.07999987,0.43354590
22.11999987,0.50581380
22.15999987,0.59608750
22.19999987,0.66835530
22.23999986,0.74062320
22.27999986,0.83095790
22.31999986,0.90322580
22.35999986,0.99356060
22.39999986,1.06582800
22.43999986,1.13809600
22.47999986,1.21030300
22.51999986,1.28257100
22.55999986,1.30063800
22.59999986,1.33677200
22.63999986,1.35483900
22.67999986,1.33677200
22.71999986,1.30063800
22.75999986,1.26450400
22.79999986,1.19223600
22.83999986,1.12002900
22.87999986,1.01162800
22.91999986,0.90322580
22.95999986,0.79482410
22.99999986,0.66835530
23.03999986,0.54194770
23.07999986,0.41547900
23.11999986,0.28901030
23.15999986,0.16254160
23.19999986,0.05413984
23.23999986,-0.07220680
23.27999986,-0.16254160
23.31999986,-0.25287640
23.35999986,-0.34321110
23.39999986,-0.41547900
23.43999986,-0.48774680
23.47999986,-0.56001470
23.51999986,-0.63222150
23.55999986,-0.70448930
23.59999986,-0.75869010
23.63999986,-0.83095790
23.67999986,-0.90322580
23.71999986,-0.97549360
23.75999986,-1.02969500
23.79999986,-1.10196200
23.83999986,-1.15616300
23.87999985,-1.21030300
23.91999985,-1.22837000
23.95999985,-1.26450400
23.99999985,-1.26450400
24.03999985,-1.26450400
24.07999985,-1.24643700
24.11999985,-1.21030300
24.15999985,-1.15616300
24.19999985,-1.08389500
24.23999985,-0.99356060
24.27999985,-0.88515880
24.31999985,-0.77675710
24.35999985,-0.65028840
24.39999985,-0.52388070
24.43999985,-0.39741200
24.47999985,-0.27094330
24.51999985,-0.14447460
24.55999985,-0.01800592
24.59999985,0.09027375
24.63999985,0.21674250
24.67999985,0.30707720
24.71999985,0.39741200
24.75999985,0.48774680
24.79999985,0.57808160
24.83999985,0.65028840
24.87999985,0.72255620
24.91999985,0.79482410
24.95999985,0.88515880
24.99999985,0.97549360
25.03999985,1.06582800
25.07999985,1.13809600
25.11999985,1.19223600
25.15999985,1.24643700
25.19999985,1.30063800
25.23999985,1.33677200
25.27999985,1.35483900
25.31999985,1.33677200
25.35999985,1.31870500
25.39999985,1.28257100
25.43999985,1.21030300
25.47999985,1.13809600
25.51999984,1.04776100
25.55999984,0.93935970
25.59999984,0.81289100
25.63999984,0.70448930
25.67999984,0.56001470
25.71999984,0.43354590
25.75999984,0.30707720
25.79999984,0.19867550
25.83999984,0.07220680
25.87999984,-0.03607288
25.91999984,-0.14447460
25.95999984,-0.23480940
25.99999984,-0.30707720
26.03999984,-0.39741200
26.07999984,-0.46967990
26.11999984,-0.54194770
26.15999984,-0.61415450
26.19999984,-0.68642230
26.23999984,-0.74062320
26.27999984,-0.81289100
26.31999984,-0.88515880
26.35999984,-0.95742670
26.39999984,-1.02969500
26.43999984,-1.08389500
26.47999984,-1.15616300
26.51999984,-1.19223600
26.55999984,-1.22837000
26.59999984,-1.26450400
26.63999984,-1.28257100
26.67999984,-1.26450400
26.71999984,-1.24643700
26.75999984,-1.22837000
26.79999984,-1.15616300
26.83999984,-1.10196200
26.87999984,-1.01162800
26.91999984,-0.90322580
26.95999984,-0.79482410
26.99999984,-0.66835530
27.03999984,-0.56001470
27.07999984,-0.43354590
27.11999984,-0.28901030
27.15999983,-0.16254160
27.19999983,-0.05413984
27.23999983,0.07220680
27.27999983,0.18060850
27.31999983,0.28901030
27.35999983,0.37934510
27.39999983,0.46967990
27.43999983,0.56001470
27.47999983,0.63222150
27.51999983,0.70448930
27.55999983,0.79482410
27.59999983,0.86709190
27.63999983,0.93935970
27.67999983,1.02969500
27.71999983,1.10196200
27.75999983,1.17416900
27.79999983,1.22837000
27.83999983,1.28257100
27.87999983,1.31870500
27.91999983,1.33677200
27.95999983,1.33677200
27.99999983,1.31870500
28.03999983,1.28257100
28.07999983,1.22837000
28.11999983,1.15616300
28.15999983,1.06582800
28.19999983,0.95742670
28.23999983,0.84902500
28.27999983,0.72255620
28.31999983,0.59608750
28.35999983,0.46967990
28.39999983,0.34321110
28.43999983,0.21674250
28.47999983,0.09027375
28.51999983,-0.01800592
28.55999983,-0.12640770
28.59999983,-0.21674250
28.63999983,-0.30707720
28.67999983,-0.37934510
28.71999983,-0.45161290
28.75999983,-0.52388070
28.79999982,-0.59608750
28.83999982,-0.66835530
28.87999982,-0.72255620
28.91999982,-0.79482410
28.95999982,-0.86709190
28.99999982,-0.93935970
29.03999982,-1.01162800
29.07999982,-1.08389500
29.11999982,-1.12002900
29.15999982,-1.19223600
29.19999982,-1.22837000
29.23999982,-1.24643700
29.27999982,-1.26450400
29.31999982,-1.28257100
29.35999982,-1.24643700
29.39999982,-1.22837000
29.43999982,-1.17416900
29.47999982,-1.12002900
29.51999982,-1.02969500
29.55999982,-0.93935970
29.59999982,-0.81289100
29.63999982,-0.70448930
29.67999982,-0.57808160
29.71999982,-0.43354590
29.75999982,-0.32514420
29.79999982,-0.18060850
29.83999982,-0.07220680
29.87999982,0.03607288
29.91999982,0.16254160
29.95999982,0.27094330
29.99999982,0.36127810
30.03999982,0.43354590
30.07999982,0.54194770
30.11999982,0.61415450
30.15999982,0.68642230
30.19999982,0.77675710
30.23999982,0.84902500
30.27999982,0.92129280
30.31999982,1.01162800
30.35999982,1.08389500
30.39999982,1.15616300
30.43999982,1.22837000
30.47999981,1.28257100
30.51999981,1.31870500
30.55999981,1.35483900
30.59999981,1.35483900
30.63999981,1.33677200
30.67999981,1.30063800
30.71999981,1.22837000
30.75999981,1.15616300
30.79999981,1.08389500
30.83999981,0.97549360
30.87999981,0.86709190
30.91999981,0.74062320
30.95999981,0.61415450
30.99999981,0.48774680
31.03999981,0.36127810
31.07999981,0.23480940
31.11999981,0.10834070
31.15999981,0.00000000
31.19999981,-0.10834070
31.23999981,-0.19867550
31.27999981,-0.28901030
31.31999981,-0.37934510
31.35999981,-0.43354590
31.39999981,-0.52388070
31.43999981,-0.57808160
31.47999981,-0.65028840
31.51999981,-0.72255620
31.55999981,-0.79482410
31.59999981,-0.86709190
31.63999981,-0.93935970
31.67999981,-0.99356060
31.71999981,-1.04776100
31.75999981,-1.12002900
31.79999981,-1.17416900
31.83999981,-1.22837000
31.87999981,-1.24643700
31.91999981,-1.26450400
31.95999981,-1.28257100
31.99999981,-1.26450400
32.03999981,-1.22837000
32.07999981,-1.19223600
32.11999980,-1.12002900
32.15999980,-1.04776100
32.19999980,-0.95742670
32.23999980,-0.83095790
32.27999980,-0.72255620
32.31999980,-0.61415450
32.35999980,-0.48774680
32.39999980,-0.36127810
32.43999980,-0.21674250
32.47999980,-0.09027375
32.51999980,0.01800592
32.55999980,0.14447460
32.59999980,0.25287640
32.63999980,0.34321110
32.67999980,0.43354590
32.71999980,0.50581380
32.75999980,0.59608750
32.79999980,0.66835530
32.83999980,0.75869010
32.87999980,0.83095790
32.91999980,0.90322580
32.95999980,1.01162800
