Time,Channel A
(us),(V)

0.00000000,-1.06582800
0.04000000,-0.97549360
0.08000000,-0.88515880
0.12000000,-0.77675710
0.16000000,-0.65028840
0.20000000,-0.52388070
0.24000000,-0.37934510
0.28000000,-0.25287640
0.32000000,-0.12640770
0.36000000,0.00000000
0.40000000,0.10834070
0.44000000,0.21674250
0.48000000,0.30707720
0.52000000,0.41547900
0.56000000,0.48774680
0.60000000,0.56001470
0.64000000,0.65028840
0.68000000,0.72255620
0.72000000,0.79482410
0.76000000,0.88515880
0.80000000,0.97549360
0.83999999,1.04776100
0.87999999,1.13809600
0.91999999,1.19223600
0.95999999,1.26450400
0.99999999,1.30063800
1.03999999,1.33677200
1.07999999,1.35483900
1.11999999,1.33677200
1.15999999,1.31870500
1.19999999,1.28257100
1.23999999,1.21030300
1.27999999,1.13809600
1.31999999,1.02969500
1.35999999,0.93935970
1.39999999,0.81289100
1.43999999,0.68642230
1.47999999,0.56001470
1.51999999,0.43354590
1.55999999,0.30707720
1.59999999,0.18060850
1.63999999,0.05413984
1.67999999,-0.05413984
1.71999999,-0.14447460
1.75999999,-0.25287640
1.79999999,-0.32514420
1.83999999,-0.39741200
1.87999999,-0.46967990
1.91999999,-0.54194770
1.95999999,-0.61415450
1.99999999,-0.68642230
2.03999999,-0.75869010
2.07999999,-0.81289100
2.11999999,-0.88515880
2.15999999,-0.95742670
2.19999999,-1.01162800
2.23999999,-1.08389500
2.27999999,-1.15616300
2.31999999,-1.19223600
2.35999999,-1.22837000
2.39999999,-1.26450400
2.43999999,-1.26450400
2.47999998,-1.26450400
2.51999998,-1.24643700
2.55999998,-1.22837000
2.59999998,-1.15616300
2.63999998,-1.08389500
2.67999998,-1.01162800
2.71999998,-0.90322580
2.75999998,-0.79482410
2.79999998,-0.66835530
2.83999998,-0.56001470
2.87999998,-0.41547900
2.91999998,-0.28901030
2.95999998,-0.14447460
2.99999998,-0.03607288
3.03999998,0.07220680
3.07999998,0.18060850
3.11999998,0.30707720
3.15999998,0.39741200
3.19999998,0.46967990
3.23999998,0.56001470
3.27999998,0.65028840
3.31999998,0.72255620
3.35999998,0.79482410
3.39999998,0.86709190
3.43999998,0.93935970
3.47999998,1.02969500
3.51999998,1.12002900
3.55999998,1.19223600
3.59999998,1.22837000
3.63999998,1.28257100
3.67999998,1.30063800
3.71999998,1.33677200
3.75999998,1.33677200
3.79999998,1.31870500
3.83999998,1.28257100
3.87999998,1.21030300
3.91999998,1.15616300
3.95999998,1.04776100
3.99999998,0.93935970
4.03999998,0.84902500
4.07999998,0.72255620
4.11999997,0.59608750
4.15999997,0.46967990
4.19999997,0.32514420
4.23999997,0.21674250
4.27999997,0.09027375
4.31999997,-0.01800592
4.35999997,-0.12640770
4.39999997,-0.21674250
4.43999997,-0.30707720
4.47999997,-0.37934510
4.51999997,-0.46967990
4.55999997,-0.54194770
4.59999997,-0.59608750
4.63999997,-0.66835530
4.67999997,-0.74062320
4.71999997,-0.81289100
4.75999997,-0.86709190
4.79999997,-0.93935970
4.83999997,-1.01162800
4.87999997,-1.08389500
4.91999997,-1.12002900
4.95999997,-1.17416900
4.99999997,-1.22837000
5.03999997,-1.24643700
5.07999997,-1.26450400
5.11999997,-1.26450400
5.15999997,-1.24643700
5.19999997,-1.22837000
5.23999997,-1.15616300
5.27999997,-1.10196200
5.31999997,-1.01162800
5.35999997,-0.92129280
5.39999997,-0.81289100
5.43999997,-0.68642230
5.47999997,-0.57808160
5.51999997,-0.45161290
5.55999997,-0.30707720
5.59999997,-0.18060850
5.63999997,-0.07220680
5.67999997,0.05413984
5.71999997,0.16254160
5.75999996,0.27094330
5.79999996,0.36127810
5.83999996,0.46967990
5.87999996,0.54194770
5.91999996,0.61415450
5.95999996,0.70448930
5.99999996,0.77675710
6.03999996,0.86709190
6.07999996,0.93935970
6.11999996,1.01162800
6.15999996,1.08389500
6.19999996,1.15616300
6.23999996,1.22837000
6.27999996,1.30063800
6.31999996,1.31870500
6.35999996,1.35483900
6.39999996,1.33677200
6.43999996,1.31870500
6.47999996,1.28257100
6.51999996,1.22837000
6.55999996,1.15616300
6.59999996,1.08389500
6.63999996,0.95742670
6.67999996,0.86709190
6.71999996,0.74062320
6.75999996,0.61415450
6.79999996,0.48774680
6.83999996,0.36127810
6.87999996,0.23480940
6.91999996,0.10834070
6.95999996,0.00000000
6.99999996,-0.09027375
7.03999996,-0.19867550
7.07999996,-0.28901030
7.11999996,-0.36127810
7.15999996,-0.43354590
7.19999996,-0.52388070
7.23999996,-0.59608750
7.27999996,-0.65028840
7.31999996,-0.72255620
7.35999996,-0.79482410
7.39999996,-0.86709190
7.43999995,-0.93935970
7.47999995,-1.01162800
7.51999995,-1.06582800
7.55999995,-1.12002900
7.59999995,-1.17416900
7.63999995,-1.22837000
7.67999995,-1.24643700
7.71999995,-1.26450400
7.75999995,-1.26450400
7.79999995,-1.24643700
7.83999995,-1.22837000
7.87999995,-1.19223600
7.91999995,-1.13809600
7.95999995,-1.04776100
7.99999995,-0.93935970
8.03999995,-0.83095790
8.07999995,-0.72255620
8.11999995,-0.59608750
8.15999995,-0.46967990
8.19999995,-0.34321110
8.23999995,-0.21674250
8.27999995,-0.09027375
8.31999995,0.03607288
8.35999995,0.14447460
8.39999995,0.25287640
8.43999995,0.36127810
8.47999995,0.43354590
8.51999995,0.52388070
8.55999995,0.59608750
8.59999995,0.66835530
8.63999995,0.75869010
8.67999995,0.83095790
8.71999995,0.92129280
8.75999995,1.01162800
8.79999995,1.08389500
8.83999995,1.15616300
8.87999995,1.21030300
8.91999995,1.28257100
8.95999995,1.31870500
8.99999995,1.35483900
9.03999995,1.35483900
9.07999994,1.33677200
9.11999994,1.30063800
9.15999994,1.26450400
9.19999994,1.19223600
9.23999994,1.10196200
9.27999994,1.01162800
9.31999994,0.88515880
9.35999994,0.77675710
9.39999994,0.63222150
9.43999994,0.50581380
9.47999994,0.37934510
9.51999994,0.25287640
9.55999994,0.12640770
9.59999994,0.00000000
9.63999994,-0.09027375
9.67999994,-0.19867550
9.71999994,-0.28901030
9.75999994,-0.36127810
9.79999994,-0.43354590
9.83999994,-0.50581380
9.87999994,-0.57808160
9.91999994,-0.65028840
9.95999994,-0.70448930
9.99999994,-0.77675710
10.03999994,-0.84902500
10.07999994,-0.90322580
10.11999994,-0.97549360
10.15999994,-1.04776100
10.19999994,-1.10196200
10.23999994,-1.15616300
10.27999994,-1.21030300
10.31999994,-1.24643700
10.35999994,-1.26450400
10.39999994,-1.28257100
10.43999994,-1.26450400
10.47999994,-1.24643700
10.51999994,-1.21030300
10.55999994,-1.15616300
10.59999994,-1.06582800
10.63999994,-0.97549360
10.67999994,-0.86709190
10.71999993,-0.74062320
10.75999993,-0.63222150
10.79999993,-0.50581380
10.83999993,-0.36127810
10.87999993,-0.23480940
10.91999993,-0.10834070
10.95999993,0.00000000
10.99999993,0.12640770
11.03999993,0.23480940
11.07999993,0.32514420
11.11999993,0.43354590
11.15999993,0.50581380
11.19999993,0.59608750
11.23999993,0.66835530
11.27999993,0.74062320
11.31999993,0.83095790
11.35999993,0.90322580
11.39999993,0.99356060
11.43999993,1.06582800
11.47999993,1.13809600
11.51999993,1.21030300
11.55999993,1.26450400
11.59999993,1.30063800
11.63999993,1.33677200
11.67999993,1.35483900
11.71999993,1.33677200
11.75999993,1.31870500
11.79999993,1.26450400
11.83999993,1.21030300
11.87999993,1.12002900
11.91999993,1.02969500
11.95999993,0.90322580
11.99999993,0.79482410
12.03999993,0.66835530
12.07999993,0.54194770
12.11999993,0.41547900
12.15999993,0.28901030
12.19999993,0.16254160
12.23999993,0.05413984
12.27999993,-0.07220680
12.31999993,-0.16254160
12.35999992,-0.23480940
12.39999992,-0.34321110
12.43999992,-0.41547900
12.47999992,-0.50581380
12.51999992,-0.57808160
12.55999992,-0.63222150
12.59999992,-0.70448930
12.63999992,-0.77675710
12.67999992,-0.83095790
12.71999992,-0.90322580
12.75999992,-0.95742670
12.79999992,-1.02969500
12.83999992,-1.10196200
12.87999992,-1.15616300
12.91999992,-1.21030300
12.95999992,-1.22837000
12.99999992,-1.26450400
13.03999992,-1.26450400
13.07999992,-1.26450400
13.11999992,-1.24643700
13.15999992,-1.21030300
13.19999992,-1.15616300
13.23999992,-1.08389500
13.27999992,-0.99356060
13.31999992,-0.88515880
13.35999992,-0.77675710
13.39999992,-0.65028840
13.43999992,-0.52388070
13.47999992,-0.39741200
13.51999992,-0.27094330
13.55999992,-0.14447460
13.59999992,-0.01800592
13.63999992,0.09027375
13.67999992,0.19867550
13.71999992,0.30707720
13.75999992,0.41547900
13.79999992,0.50581380
13.83999992,0.57808160
13.87999992,0.65028840
13.91999992,0.72255620
13.95999992,0.81289100
13.99999991,0.90322580
14.03999991,0.99356060
14.07999991,1.06582800
14.11999991,1.13809600
14.15999991,1.21030300
14.19999991,1.26450400
14.23999991,1.30063800
14.27999991,1.33677200
14.31999991,1.35483900
14.35999991,1.33677200
14.39999991,1.30063800
14.43999991,1.28257100
14.47999991,1.21030300
14.51999991,1.13809600
14.55999991,1.04776100
14.59999991,0.93935970
14.63999991,0.81289100
14.67999991,0.70448930
14.71999991,0.56001470
14.75999991,0.43354590
14.79999991,0.30707720
14.83999991,0.19867550
14.87999991,0.07220680
14.91999991,-0.03607288
14.95999991,-0.12640770
14.99999991,-0.23480940
15.03999991,-0.32514420
15.07999991,-0.39741200
15.11999991,-0.46967990
15.15999991,-0.54194770
15.19999991,-0.63222150
15.23999991,-0.68642230
15.27999991,-0.75869010
15.31999991,-0.83095790
15.35999991,-0.90322580
15.39999991,-0.95742670
15.43999991,-1.02969500
15.47999991,-1.08389500
15.51999991,-1.15616300
15.55999991,-1.19223600
15.59999991,-1.22837000
15.63999990,-1.26450400
15.67999990,-1.26450400
15.71999990,-1.26450400
15.75999990,-1.24643700
15.79999990,-1.21030300
15.83999990,-1.15616300
15.87999990,-1.08389500
15.91999990,-1.01162800
15.95999990,-0.90322580
15.99999990,-0.79482410
16.03999990,-0.66835530
16.07999990,-0.56001470
16.11999990,-0.43354590
16.15999990,-0.30707720
16.19999990,-0.16254160
16.23999990,-0.03607288
16.27999990,0.05413984
16.31999990,0.18060850
16.35999990,0.28901030
16.39999990,0.37934510
16.43999990,0.46967990
16.47999990,0.56001470
16.51999990,0.63222150
16.55999990,0.72255620
16.59999990,0.79482410
16.63999990,0.86709190
16.67999990,0.95742670
16.71999990,1.04776100
16.75999990,1.12002900
16.79999990,1.19223600
16.83999990,1.24643700
16.87999990,1.30063800
16.91999990,1.33677200
16.95999990,1.35483900
16.99999990,1.33677200
17.03999990,1.33677200
17.07999990,1.30063800
17.11999990,1.22837000
17.15999990,1.15616300
17.19999990,1.06582800
17.23999990,0.93935970
17.27999989,0.83095790
17.31999989,0.72255620
17.35999989,0.59608750
17.39999989,0.46967990
17.43999989,0.34321110
17.47999989,0.21674250
17.51999989,0.09027375
17.55999989,-0.01800592
17.59999989,-0.10834070
17.63999989,-0.21674250
17.67999989,-0.28901030
17.71999989,-0.37934510
17.75999989,-0.46967990
17.79999989,-0.54194770
17.83999989,-0.59608750
17.87999989,-0.66835530
17.91999989,-0.74062320
17.95999989,-0.81289100
17.99999989,-0.88515880
18.03999989,-0.93935970
18.07999989,-1.01162800
18.11999989,-1.08389500
18.15999989,-1.13809600
18.19999989,-1.17416900
18.23999989,-1.22837000
18.27999989,-1.24643700
18.31999989,-1.28257100
18.35999989,-1.28257100
18.39999989,-1.26450400
18.43999989,-1.22837000
18.47999989,-1.17416900
18.51999989,-1.12002900
18.55999989,-1.02969500
18.59999989,-0.93935970
18.63999989,-0.81289100
18.67999989,-0.72255620
18.71999989,-0.57808160
18.75999989,-0.45161290
18.79999989,-0.32514420
18.83999989,-0.18060850
18.87999989,-0.07220680
18.91999989,0.05413984
18.95999988,0.16254160
18.99999988,0.27094330
19.03999988,0.36127810
19.07999988,0.45161290
19.11999988,0.54194770
19.15999988,0.61415450
19.19999988,0.70448930
19.23999988,0.77675710
19.27999988,0.86709190
19.31999988,0.93935970
19.35999988,1.01162800
19.39999988,1.10196200
19.43999988,1.17416900
19.47999988,1.22837000
19.51999988,1.28257100
19.55999988,1.33677200
19.59999988,1.37290600
19.63999988,1.35483900
19.67999988,1.33677200
19.71999988,1.30063800
19.75999988,1.24643700
19.79999988,1.17416900
19.83999988,1.08389500
19.87999988,0.99356060
19.91999988,0.86709190
19.95999988,0.74062320
19.99999988,0.63222150
20.03999988,0.48774680
20.07999988,0.36127810
20.11999988,0.23480940
20.15999988,0.12640770
20.19999988,0.00000000
20.23999988,-0.09027375
20.27999988,-0.19867550
20.31999988,-0.28901030
20.35999988,-0.36127810
20.39999988,-0.43354590
20.43999988,-0.52388070
20.47999988,-0.59608750
20.51999988,-0.65028840
20.55999988,-0.72255620
20.59999987,-0.79482410
20.63999987,-0.86709190
20.67999987,-0.93935970
20.71999987,-1.01162800
20.75999987,-1.06582800
20.79999987,-1.13809600
20.83999987,-1.19223600
20.87999987,-1.22837000
20.91999987,-1.24643700
20.95999987,-1.28257100
20.99999987,-1.28257100
21.03999987,-1.26450400
21.07999987,-1.24643700
21.11999987,-1.19223600
21.15999987,-1.12002900
21.19999987,-1.04776100
21.23999987,-0.93935970
21.27999987,-0.84902500
21.31999987,-0.72255620
21.35999987,-0.59608750
21.39999987,-0.46967990
21.43999987,-0.34321110
21.47999987,-0.21674250
21.51999987,-0.09027375
21.55999987,0.01800592
21.59999987,0.14447460
21.63999987,0.25287640
21.67999987,0.34321110
21.71999987,0.43354590
21.75999987,0.52388070
21.79999987,0.59608750
21.83999987,0.68642230
21.87999987,0.77675710
21.91999987,0.84902500
21.95999987,0.92129280
21.99999987,1.01162800
22.03999987,1.08389500
22.07999987,1.15616300
22.11999987,1.22837000
22.15999987,1.28257100
22.19999987,1.31870500
22.23999986,1.33677200
22.27999986,1.35483900
22.31999986,1.33677200
22.35999986,1.31870500
22.39999986,1.26450400
22.43999986,1.19223600
22.47999986,1.10196200
22.51999986,1.01162800
22.55999986,0.90322580
22.59999986,0.77675710
22.63999986,0.65028840
22.67999986,0.52388070
22.71999986,0.37934510
22.75999986,0.25287640
22.79999986,0.14447460
22.83999986,0.03607288
22.87999986,-0.07220680
22.91999986,-0.18060850
22.95999986,-0.27094330
22.99999986,-0.36127810
23.03999986,-0.43354590
23.07999986,-0.50581380
23.11999986,-0.57808160
23.15999986,-0.65028840
23.19999986,-0.72255620
23.23999986,-0.79482410
23.27999986,-0.84902500
23.31999986,-0.92129280
23.35999986,-0.99356060
23.39999986,-1.06582800
23.43999986,-1.12002900
23.47999986,-1.15616300
23.51999986,-1.22837000
23.55999986,-1.26450400
23.59999986,-1.26450400
23.63999986,-1.28257100
23.67999986,-1.26450400
23.71999986,-1.24643700
23.75999986,-1.21030300
23.79999986,-1.13809600
23.83999986,-1.06582800
23.87999985,-0.97549360
23.91999985,-0.86709190
23.95999985,-0.75869010
23.99999985,-0.63222150
24.03999985,-0.50581380
24.07999985,-0.37934510
24.11999985,-0.25287640
24.15999985,-0.12640770
24.19999985,0.00000000
24.23999985,0.12640770
24.27999985,0.21674250
24.31999985,0.32514420
24.35999985,0.41547900
24.39999985,0.50581380
24.43999985,0.57808160
24.47999985,0.65028840
24.51999985,0.74062320
24.55999985,0.83095790
24.59999985,0.90322580
24.63999985,0.99356060
24.67999985,1.06582800
24.71999985,1.13809600
24.75999985,1.21030300
24.79999985,1.28257100
24.83999985,1.31870500
24.87999985,1.33677200
24.91999985,1.35483900
24.95999985,1.33677200
24.99999985,1.31870500
25.03999985,1.28257100
25.07999985,1.21030300
25.11999985,1.12002900
25.15999985,1.02969500
25.19999985,0.92129280
25.23999985,0.79482410
25.27999985,0.66835530
25.31999985,0.54194770
25.35999985,0.41547900
25.39999985,0.28901030
25.43999985,0.16254160
25.47999985,0.05413984
25.51999984,-0.05413984
25.55999984,-0.16254160
25.59999984,-0.25287640
25.63999984,-0.32514420
25.67999984,-0.41547900
25.71999984,-0.48774680
25.75999984,-0.56001470
25.79999984,-0.63222150
25.83999984,-0.70448930
25.87999984,-0.75869010
25.91999984,-0.83095790
25.95999984,-0.90322580
25.99999984,-0.97549360
26.03999984,-1.02969500
26.07999984,-1.10196200
26.11999984,-1.15616300
26.15999984,-1.21030300
26.19999984,-1.22837000
26.23999984,-1.26450400
26.27999984,-1.28257100
26.31999984,-1.26450400
26.35999984,-1.26450400
26.39999984,-1.22837000
26.43999984,-1.15616300
26.47999984,-1.08389500
26.51999984,-0.99356060
26.55999984,-0.88515880
26.59999984,-0.77675710
26.63999984,-0.65028840
26.67999984,-0.52388070
26.71999984,-0.39741200
26.75999984,-0.27094330
26.79999984,-0.14447460
26.83999984,-0.01800592
26.87999984,0.09027375
26.91999984,0.19867550
26.95999984,0.28901030
26.99999984,0.39741200
27.03999984,0.48774680
27.07999984,0.57808160
27.11999984,0.65028840
27.15999983,0.72255620
27.19999983,0.79482410
27.23999983,0.88515880
27.27999983,0.97549360
27.31999983,1.04776100
27.35999983,1.12002900
27.39999983,1.19223600
27.43999983,1.24643700
27.47999983,1.30063800
27.51999983,1.33677200
27.55999983,1.33677200
27.59999983,1.33677200
27.63999983,1.30063800
27.67999983,1.28257100
27.71999983,1.21030300
27.75999983,1.13809600
27.79999983,1.04776100
27.83999983,0.93935970
27.87999983,0.83095790
27.91999983,0.70448930
27.95999983,0.57808160
27.99999983,0.45161290
28.03999983,0.32514420
28.07999983,0.19867550
28.11999983,0.07220680
28.15999983,-0.03607288
28.19999983,-0.12640770
28.23999983,-0.23480940
28.27999983,-0.32514420
28.31999983,-0.39741200
28.35999983,-0.48774680
28.39999983,-0.56001470
28.43999983,-0.61415450
28.47999983,-0.68642230
28.51999983,-0.75869010
28.55999983,-0.83095790
28.59999983,-0.88515880
28.63999983,-0.95742670
28.67999983,-1.01162800
28.71999983,-1.08389500
28.75999983,-1.13809600
28.79999982,-1.19223600
28.83999982,-1.22837000
28.87999982,-1.24643700
28.91999982,-1.26450400
28.95999982,-1.26450400
28.99999982,-1.24643700
29.03999982,-1.22837000
29.07999982,-1.17416900
29.11999982,-1.10196200
29.15999982,-1.01162800
29.19999982,-0.92129280
29.23999982,-0.81289100
29.27999982,-0.68642230
29.31999982,-0.56001470
29.35999982,-0.43354590
29.39999982,-0.30707720
29.43999982,-0.16254160
29.47999982,-0.05413984
29.51999982,0.07220680
29.55999982,0.18060850
29.59999982,0.28901030
29.63999982,0.37934510
29.67999982,0.46967990
29.71999982,0.56001470
29.75999982,0.63222150
29.79999982,0.72255620
29.83999982,0.79482410
29.87999982,0.86709190
29.91999982,0.93935970
29.95999982,1.02969500
29.99999982,1.10196200
30.03999982,1.17416900
30.07999982,1.24643700
30.11999982,1.30063800
30.15999982,1.31870500
30.19999982,1.33677200
30.23999982,1.35483900
30.27999982,1.31870500
30.31999982,1.30063800
30.35999982,1.22837000
30.39999982,1.15616300
30.43999982,1.06582800
30.47999981,0.95742670
30.51999981,0.84902500
30.55999981,0.72255620
30.59999981,0.61415450
30.63999981,0.46967990
30.67999981,0.34321110
30.71999981,0.21674250
30.75999981,0.10834070
30.79999981,0.00000000
30.83999981,-0.10834070
30.87999981,-0.21674250
30.91999981,-0.30707720
30.95999981,-0.37934510
30.99999981,-0.45161290
31.03999981,-0.52388070
31.07999981,-0.59608750
31.11999981,-0.66835530
31.15999981,-0.74062320
31.19999981,-0.81289100
31.23999981,-0.88515880
31.27999981,-0.93935970
31.31999981,-1.01162800
31.35999981,-1.08389500
31.39999981,-1.12002900
31.43999981,-1.17416900
31.47999981,-1.22837000
31.51999981,-1.24643700
31.55999981,-1.26450400
31.59999981,-1.26450400
31.63999981,-1.24643700
31.67999981,-1.22837000
31.71999981,-1.17416900
31.75999981,-1.10196200
31.79999981,-1.02969500
31.83999981,-0.93935970
31.87999981,-0.83095790
31.91999981,-0.70448930
31.95999981,-0.57808160
31.99999981,-0.46967990
32.03999981,-0.32514420
32.07999981,-0.19867550
32.11999980,-0.07220680
32.15999980,0.03607288
32.19999980,0.14447460
32.23999980,0.25287640
32.27999980,0.36127810
32.31999980,0.45161290
32.35999980,0.56001470
32.39999980,0.61415450
32.43999980,0.70448930
32.47999980,0.77675710
32.51999980,0.86709190
32.55999980,0.92129280
32.59999980,1.01162800
32.63999980,1.10196200
32.67999980,1.15616300
32.71999980,1.22837000
32.75999980,1.28257100
32.79999980,1.31870500
32.83999980,1.35483900
32.87999980,1.33677200
32.91999980,1.33677200
32.95999980,1.30063800
