Time	Channel A
(us)	(V)

0.00000000	1.30063800
0.04000000	1.26450400
0.08000000	1.19223600
0.12000000	1.12002900
0.16000000	1.01162800
0.20000000	0.92129280
0.24000000	0.79482410
0.28000000	0.66835530
0.32000000	0.54194770
0.36000000	0.41547900
0.40000000	0.28901030
0.44000000	0.16254160
0.48000000	0.03607288
0.52000000	-0.05413984
0.56000000	-0.16254160
0.60000000	-0.25287640
0.64000000	-0.34321110
0.68000000	-0.43354590
0.72000000	-0.50581380
0.76000000	-0.57808160
0.80000000	-0.63222150
0.83999999	-0.70448930
0.87999999	-0.77675710
0.91999999	-0.83095790
0.95999999	-0.90322580
0.99999999	-0.97549360
1.03999999	-1.02969500
1.07999999	-1.08389500
1.11999999	-1.15616300
1.15999999	-1.21030300
1.19999999	-1.24643700
1.23999999	-1.26450400
1.27999999	-1.26450400
1.31999999	-1.26450400
1.35999999	-1.24643700
1.39999999	-1.21030300
1.43999999	-1.15616300
1.47999999	-1.08389500
1.51999999	-0.99356060
1.55999999	-0.88515880
1.59999999	-0.77675710
1.63999999	-0.65028840
1.67999999	-0.52388070
1.71999999	-0.39741200
1.75999999	-0.27094330
1.79999999	-0.14447460
1.83999999	-0.01800592
1.87999999	0.09027375
1.91999999	0.19867550
1.95999999	0.30707720
1.99999999	0.41547900
2.03999999	0.48774680
2.07999999	0.57808160
2.11999999	0.65028840
2.15999999	0.72255620
2.19999999	0.79482410
2.23999999	0.88515880
2.27999999	0.97549360
2.31999999	1.04776100
2.35999999	1.13809600
2.39999999	1.19223600
2.43999999	1.26450400
2.47999998	1.30063800
2.51999998	1.33677200
2.55999998	1.35483900
2.59999998	1.33677200
2.63999998	1.31870500
2.67999998	1.28257100
2.71999998	1.21030300
2.75999998	1.13809600
2.79999998	1.04776100
2.83999998	0.93935970
2.87999998	0.81289100
2.91999998	0.70448930
2.95999998	0.56001470
2.99999998	0.43354590
3.03999998	0.30707720
3.07999998	0.18060850
3.11999998	0.07220680
3.15999998	-0.03607288
3.19999998	-0.14447460
3.23999998	-0.23480940
3.27999998	-0.32514420
3.31999998	-0.39741200
3.35999998	-0.46967990
3.39999998	-0.54194770
3.43999998	-0.61415450
3.47999998	-0.68642230
3.51999998	-0.74062320
3.55999998	-0.81289100
3.59999998	-0.88515880
3.63999998	-0.95742670
3.67999998	-1.02969500
3.71999998	-1.08389500
3.75999998	-1.15616300
3.79999998	-1.19223600
3.83999998	-1.22837000
3.87999998	-1.26450400
3.91999998	-1.28257100
3.95999998	-1.28257100
3.99999998	-1.24643700
4.03999998	-1.21030300
4.07999998	-1.15616300
4.11999997	-1.08389500
4.15999997	-1.01162800
4.19999997	-0.90322580
4.23999997	-0.79482410
4.27999997	-0.66835530
4.31999997	-0.54194770
4.35999997	-0.41547900
4.39999997	-0.28901030
4.43999997	-0.16254160
4.47999997	-0.03607288
4.51999997	0.07220680
4.55999997	0.18060850
4.59999997	0.28901030
4.63999997	0.36127810
4.67999997	0.45161290
4.71999997	0.56001470
4.75999997	0.63222150
4.79999997	0.72255620
4.83999997	0.79482410
4.87999997	0.86709190
4.91999997	0.95742670
4.95999997	1.04776100
4.99999997	1.12002900
5.03999997	1.19223600
5.07999997	1.24643700
5.11999997	1.30063800
5.15999997	1.33677200
5.19999997	1.35483900
5.23999997	1.35483900
5.27999997	1.33677200
5.31999997	1.30063800
5.35999997	1.22837000
5.39999997	1.15616300
5.43999997	1.06582800
5.47999997	0.93935970
5.51999997	0.83095790
5.55999997	0.72255620
5.59999997	0.59608750
5.63999997	0.46967990
5.67999997	0.32514420
5.71999997	0.21674250
5.75999996	0.09027375
5.79999996	-0.01800592
5.83999996	-0.12640770
5.87999996	-0.21674250
5.91999996	-0.30707720
5.95999996	-0.37934510
5.99999996	-0.46967990
6.03999996	-0.54194770
6.07999996	-0.61415450
6.11999996	-0.66835530
6.15999996	-0.74062320
6.19999996	-0.81289100
6.23999996	-0.88515880
6.27999996	-0.93935970
6.31999996	-1.01162800
6.35999996	-1.08389500
6.39999996	-1.12002900
6.43999996	-1.19223600
6.47999996	-1.22837000
6.51999996	-1.26450400
6.55999996	-1.26450400
6.59999996	-1.28257100
6.63999996	-1.26450400
6.67999996	-1.22837000
6.71999996	-1.17416900
6.75999996	-1.12002900
6.79999996	-1.02969500
6.83999996	-0.92129280
6.87999996	-0.83095790
6.91999996	-0.70448930
6.95999996	-0.57808160
6.99999996	-0.45161290
7.03999996	-0.32514420
7.07999996	-0.19867550
7.11999996	-0.07220680
7.15999996	0.05413984
7.19999996	0.16254160
7.23999996	0.27094330
7.27999996	0.36127810
7.31999996	0.45161290
7.35999996	0.54194770
7.39999996	0.61415450
7.43999995	0.70448930
7.47999995	0.77675710
7.51999995	0.84902500
7.55999995	0.93935970
7.59999995	1.01162800
7.63999995	1.10196200
7.67999995	1.15616300
7.71999995	1.22837000
7.75999995	1.28257100
7.79999995	1.31870500
7.83999995	1.33677200
7.87999995	1.35483900
7.91999995	1.33677200
7.95999995	1.30063800
7.99999995	1.24643700
8.03999995	1.15616300
8.07999995	1.08389500
8.11999995	0.97549360
8.15999995	0.86709190
8.19999995	0.74062320
8.23999995	0.61415450
8.27999995	0.50581380
8.31999995	0.36127810
8.35999995	0.23480940
8.39999995	0.10834070
8.43999995	0.00000000
8.47999995	-0.09027375
8.51999995	-0.21674250
8.55999995	-0.28901030
8.59999995	-0.37934510
8.63999995	-0.45161290
8.67999995	-0.52388070
8.71999995	-0.59608750
8.75999995	-0.65028840
8.79999995	-0.72255620
8.83999995	-0.79482410
8.87999995	-0.86709190
8.91999995	-0.92129280
8.95999995	-0.99356060
8.99999995	-1.06582800
9.03999995	-1.12002900
9.07999994	-1.17416900
9.11999994	-1.21030300
9.15999994	-1.24643700
9.19999994	-1.28257100
9.23999994	-1.28257100
9.27999994	-1.26450400
9.31999994	-1.22837000
9.35999994	-1.19223600
9.39999994	-1.12002900
9.43999994	-1.04776100
9.47999994	-0.93935970
9.51999994	-0.84902500
9.55999994	-0.72255620
9.59999994	-0.61415450
9.63999994	-0.46967990
9.67999994	-0.36127810
9.71999994	-0.21674250
9.75999994	-0.09027375
9.79999994	0.01800592
9.83999994	0.14447460
9.87999994	0.25287640
9.91999994	0.34321110
9.95999994	0.43354590
9.99999994	0.52388070
10.03999994	0.59608750
10.07999994	0.68642230
10.11999994	0.75869010
10.15999994	0.84902500
10.19999994	0.92129280
10.23999994	1.01162800
10.27999994	1.08389500
10.31999994	1.15616300
10.35999994	1.22837000
10.39999994	1.28257100
10.43999994	1.31870500
10.47999994	1.33677200
10.51999994	1.35483900
10.55999994	1.33677200
10.59999994	1.30063800
10.63999994	1.24643700
10.67999994	1.19223600
10.71999993	1.10196200
10.75999993	1.01162800
10.79999993	0.88515880
10.83999993	0.77675710
10.87999993	0.65028840
10.91999993	0.52388070
10.95999993	0.41547900
10.99999993	0.25287640
11.03999993	0.14447460
11.07999993	0.01800592
11.11999993	-0.07220680
11.15999993	-0.18060850
11.19999993	-0.27094330
11.23999993	-0.36127810
11.27999993	-0.43354590
11.31999993	-0.50581380
11.35999993	-0.57808160
11.39999993	-0.65028840
11.43999993	-0.72255620
11.47999993	-0.79482410
11.51999993	-0.86709190
11.55999993	-0.92129280
11.59999993	-0.99356060
11.63999993	-1.04776100
11.67999993	-1.12002900
11.71999993	-1.17416900
11.75999993	-1.22837000
11.79999993	-1.24643700
11.83999993	-1.26450400
11.87999993	-1.28257100
11.91999993	-1.26450400
11.95999993	-1.24643700
11.99999993	-1.21030300
12.03999993	-1.13809600
12.07999993	-1.06582800
12.11999993	-0.97549360
12.15999993	-0.86709190
12.19999993	-0.75869010
12.23999993	-0.63222150
12.27999993	-0.50581380
12.31999993	-0.37934510
12.35999992	-0.25287640
12.39999992	-0.10834070
12.43999992	0.00000000
12.47999992	0.10834070
12.51999992	0.21674250
12.55999992	0.32514420
12.59999992	0.43354590
12.63999992	0.50581380
12.67999992	0.57808160
12.71999992	0.66835530
12.75999992	0.74062320
12.79999992	0.83095790
12.83999992	0.90322580
12.87999992	0.99356060
12.91999992	1.08389500
12.95999992	1.13809600
12.99999992	1.21030300
13.03999992	1.28257100
13.07999992	1.31870500
13.11999992	1.33677200
13.15999992	1.35483900
13.19999992	1.33677200
13.23999992	1.31870500
13.27999992	1.26450400
13.31999992	1.19223600
13.35999992	1.12002900
13.39999992	1.01162800
13.43999992	0.92129280
13.47999992	0.79482410
13.51999992	0.66835530
13.55999992	0.54194770
13.59999992	0.41547900
13.63999992	0.28901030
13.67999992	0.16254160
13.71999992	0.05413984
13.75999992	-0.05413984
13.79999992	-0.14447460
13.83999992	-0.25287640
13.87999992	-0.34321110
13.91999992	-0.41547900
13.95999992	-0.48774680
13.99999991	-0.56001470
14.03999991	-0.63222150
14.07999991	-0.70448930
14.11999991	-0.75869010
14.15999991	-0.84902500
14.19999991	-0.90322580
14.23999991	-0.97549360
14.27999991	-1.02969500
14.31999991	-1.10196200
14.35999991	-1.15616300
14.39999991	-1.21030300
14.43999991	-1.24643700
14.47999991	-1.26450400
14.51999991	-1.28257100
14.55999991	-1.26450400
14.59999991	-1.24643700
14.63999991	-1.21030300
14.67999991	-1.15616300
14.71999991	-1.08389500
14.75999991	-0.99356060
14.79999991	-0.88515880
14.83999991	-0.77675710
14.87999991	-0.65028840
14.91999991	-0.54194770
14.95999991	-0.39741200
14.99999991	-0.28901030
15.03999991	-0.14447460
15.07999991	-0.01800592
15.11999991	0.09027375
15.15999991	0.19867550
15.19999991	0.30707720
15.23999991	0.39741200
15.27999991	0.48774680
15.31999991	0.57808160
15.35999991	0.65028840
15.39999991	0.72255620
15.43999991	0.81289100
15.47999991	0.88515880
15.51999991	0.97549360
15.55999991	1.04776100
15.59999991	1.12002900
15.63999990	1.19223600
15.67999990	1.26450400
15.71999990	1.30063800
15.75999990	1.33677200
15.79999990	1.35483900
15.83999990	1.33677200
15.87999990	1.30063800
15.91999990	1.26450400
15.95999990	1.21030300
15.99999990	1.13809600
16.03999990	1.04776100
16.07999990	0.93935970
16.11999990	0.83095790
16.15999990	0.70448930
16.19999990	0.57808160
16.23999990	0.45161290
16.27999990	0.30707720
16.31999990	0.18060850
16.35999990	0.07220680
16.39999990	-0.03607288
16.43999990	-0.12640770
16.47999990	-0.23480940
16.51999990	-0.30707720
16.55999990	-0.39741200
16.59999990	-0.46967990
16.63999990	-0.56001470
16.67999990	-0.63222150
16.71999990	-0.68642230
16.75999990	-0.75869010
16.79999990	-0.83095790
16.83999990	-0.90322580
16.87999990	-0.95742670
16.91999990	-1.02969500
16.95999990	-1.08389500
16.99999990	-1.15616300
17.03999990	-1.19223600
17.07999990	-1.22837000
17.11999990	-1.26450400
17.15999990	-1.26450400
17.19999990	-1.26450400
17.23999990	-1.24643700
17.27999989	-1.21030300
17.31999989	-1.15616300
17.35999989	-1.08389500
17.39999989	-1.01162800
17.43999989	-0.92129280
17.47999989	-0.79482410
17.51999989	-0.66835530
17.55999989	-0.57808160
17.59999989	-0.43354590
17.63999989	-0.30707720
17.67999989	-0.18060850
17.71999989	-0.05413984
17.75999989	0.05413984
17.79999989	0.18060850
17.83999989	0.28901030
17.87999989	0.36127810
17.91999989	0.46967990
17.95999989	0.56001470
17.99999989	0.63222150
18.03999989	0.72255620
18.07999989	0.79482410
18.11999989	0.86709190
18.15999989	0.95742670
18.19999989	1.04776100
18.23999989	1.12002900
18.27999989	1.19223600
18.31999989	1.24643700
18.35999989	1.30063800
18.39999989	1.33677200
18.43999989	1.33677200
18.47999989	1.33677200
18.51999989	1.31870500
18.55999989	1.28257100
18.59999989	1.22837000
18.63999989	1.15616300
18.67999989	1.06582800
18.71999989	0.95742670
18.75999989	0.83095790
18.79999989	0.72255620
18.83999989	0.59608750
18.87999989	0.46967990
18.91999989	0.34321110
18.95999988	0.21674250
18.99999988	0.09027375
19.03999988	-0.01800592
19.07999988	-0.10834070
19.11999988	-0.21674250
19.15999988	-0.28901030
19.19999988	-0.37934510
19.23999988	-0.45161290
19.27999988	-0.54194770
19.31999988	-0.59608750
19.35999988	-0.66835530
19.39999988	-0.74062320
19.43999988	-0.81289100
19.47999988	-0.86709190
19.51999988	-0.93935970
19.55999988	-1.01162800
19.59999988	-1.08389500
19.63999988	-1.13809600
19.67999988	-1.17416900
19.71999988	-1.22837000
19.75999988	-1.24643700
19.79999988	-1.28257100
19.83999988	-1.28257100
19.87999988	-1.24643700
19.91999988	-1.22837000
19.95999988	-1.17416900
19.99999988	-1.10196200
20.03999988	-1.01162800
20.07999988	-0.92129280
20.11999988	-0.81289100
20.15999988	-0.70448930
20.19999988	-0.57808160
20.23999988	-0.45161290
20.27999988	-0.32514420
20.31999988	-0.21674250
20.35999988	-0.07220680
20.39999988	0.03607288
20.43999988	0.14447460
20.47999988	0.27094330
20.51999988	0.36127810
20.55999988	0.43354590
20.59999987	0.54194770
20.63999987	0.61415450
20.67999987	0.70448930
20.71999987	0.77675710
20.75999987	0.84902500
20.79999987	0.93935970
20.83999987	1.01162800
20.87999987	1.08389500
20.91999987	1.15616300
20.95999987	1.22837000
20.99999987	1.28257100
21.03999987	1.31870500
21.07999987	1.35483900
21.11999987	1.35483900
21.15999987	1.33677200
21.19999987	1.30063800
21.23999987	1.24643700
21.27999987	1.15616300
21.31999987	1.08389500
21.35999987	0.99356060
21.39999987	0.86709190
21.43999987	0.75869010
21.47999987	0.61415450
21.51999987	0.50581380
21.55999987	0.36127810
21.59999987	0.21674250
21.63999987	0.10834070
21.67999987	0.00000000
21.71999987	-0.09027375
21.75999987	-0.19867550
21.79999987	-0.28901030
21.83999987	-0.36127810
21.87999987	-0.45161290
21.91999987	-0.50581380
21.95999987	-0.57808160
21.99999987	-0.65028840
22.03999987	-0.72255620
22.07999987	-0.79482410
22.11999987	-0.86709190
22.15999987	-0.92129280
22.19999987	-0.99356060
22.23999986	-1.06582800
22.27999986	-1.12002900
22.31999986	-1.17416900
22.35999986	-1.22837000
22.39999986	-1.24643700
22.43999986	-1.28257100
22.47999986	-1.28257100
22.51999986	-1.26450400
22.55999986	-1.22837000
22.59999986	-1.19223600
22.63999986	-1.12002900
22.67999986	-1.02969500
22.71999986	-0.93935970
22.75999986	-0.83095790
22.79999986	-0.72255620
22.83999986	-0.59608750
22.87999986	-0.46967990
22.91999986	-0.34321110
22.95999986	-0.21674250
22.99999986	-0.09027375
23.03999986	0.01800592
23.07999986	0.14447460
23.11999986	0.25287640
23.15999986	0.34321110
23.19999986	0.43354590
23.23999986	0.50581380
23.27999986	0.59608750
23.31999986	0.66835530
23.35999986	0.75869010
23.39999986	0.83095790
23.43999986	0.92129280
23.47999986	0.99356060
23.51999986	1.08389500
23.55999986	1.15616300
23.59999986	1.21030300
23.63999986	1.28257100
23.67999986	1.31870500
23.71999986	1.35483900
23.75999986	1.35483900
23.79999986	1.35483900
23.83999986	1.30063800
23.87999985	1.26450400
23.91999985	1.19223600
23.95999985	1.10196200
23.99999985	1.01162800
24.03999985	0.88515880
24.07999985	0.77675710
24.11999985	0.65028840
24.15999985	0.50581380
24.19999985	0.37934510
24.23999985	0.25287640
24.27999985	0.14447460
24.31999985	0.01800592
24.35999985	-0.09027375
24.39999985	-0.18060850
24.43999985	-0.27094330
24.47999985	-0.36127810
24.51999985	-0.43354590
24.55999985	-0.50581380
24.59999985	-0.57808160
24.63999985	-0.63222150
24.67999985	-0.70448930
24.71999985	-0.77675710
24.75999985	-0.84902500
24.79999985	-0.92129280
24.83999985	-0.97549360
24.87999985	-1.04776100
24.91999985	-1.12002900
24.95999985	-1.15616300
24.99999985	-1.21030300
25.03999985	-1.24643700
25.07999985	-1.26450400
25.11999985	-1.28257100
25.15999985	-1.26450400
25.19999985	-1.24643700
25.23999985	-1.21030300
25.27999985	-1.13809600
25.31999985	-1.06582800
25.35999985	-0.97549360
25.39999985	-0.86709190
25.43999985	-0.74062320
25.47999985	-0.63222150
25.51999984	-0.50581380
25.55999984	-0.37934510
25.59999984	-0.23480940
25.63999984	-0.10834070
25.67999984	0.00000000
25.71999984	0.10834070
25.75999984	0.21674250
25.79999984	0.32514420
25.83999984	0.41547900
25.87999984	0.50581380
25.91999984	0.57808160
25.95999984	0.65028840
25.99999984	0.74062320
26.03999984	0.81289100
26.07999984	0.90322580
26.11999984	0.99356060
26.15999984	1.06582800
26.19999984	1.15616300
26.23999984	1.22837000
26.27999984	1.28257100
26.31999984	1.31870500
26.35999984	1.35483900
26.39999984	1.35483900
26.43999984	1.33677200
26.47999984	1.31870500
26.51999984	1.26450400
26.55999984	1.19223600
26.59999984	1.10196200
26.63999984	1.01162800
26.67999984	0.90322580
26.71999984	0.77675710
26.75999984	0.66835530
26.79999984	0.54194770
26.83999984	0.39741200
26.87999984	0.28901030
26.91999984	0.16254160
26.95999984	0.05413984
26.99999984	-0.05413984
27.03999984	-0.14447460
27.07999984	-0.25287640
27.11999984	-0.32514420
27.15999983	-0.41547900
27.19999983	-0.46967990
27.23999983	-0.56001470
27.27999983	-0.63222150
27.31999983	-0.70448930
27.35999983	-0.77675710
27.39999983	-0.83095790
27.43999983	-0.90322580
27.47999983	-0.97549360
27.51999983	-1.04776100
27.55999983	-1.10196200
27.59999983	-1.15616300
27.63999983	-1.21030300
27.67999983	-1.24643700
27.71999983	-1.26450400
27.75999983	-1.26450400
27.79999983	-1.26450400
27.83999983	-1.24643700
27.87999983	-1.21030300
27.91999983	-1.15616300
27.95999983	-1.06582800
27.99999983	-0.97549360
28.03999983	-0.86709190
28.07999983	-0.75869010
28.11999983	-0.65028840
28.15999983	-0.52388070
28.19999983	-0.39741200
28.23999983	-0.27094330
28.27999983	-0.14447460
28.31999983	-0.03607288
28.35999983	0.07220680
28.39999983	0.19867550
28.43999983	0.28901030
28.47999983	0.39741200
28.51999983	0.48774680
28.55999983	0.56001470
28.59999983	0.65028840
28.63999983	0.72255620
28.67999983	0.79482410
28.71999983	0.86709190
28.75999983	0.97549360
28.79999982	1.04776100
28.83999982	1.13809600
28.87999982	1.21030300
28.91999982	1.26450400
28.95999982	1.30063800
28.99999982	1.33677200
29.03999982	1.35483900
29.07999982	1.35483900
29.11999982	1.31870500
29.15999982	1.28257100
29.19999982	1.21030300
29.23999982	1.13809600
29.27999982	1.04776100
29.31999982	0.92129280
29.35999982	0.81289100
29.39999982	0.68642230
29.43999982	0.56001470
29.47999982	0.43354590
29.51999982	0.30707720
29.55999982	0.18060850
29.59999982	0.07220680
29.63999982	-0.03607288
29.67999982	-0.14447460
29.71999982	-0.23480940
29.75999982	-0.32514420
29.79999982	-0.39741200
29.83999982	-0.46967990
29.87999982	-0.54194770
29.91999982	-0.61415450
29.95999982	-0.66835530
29.99999982	-0.74062320
30.03999982	-0.81289100
30.07999982	-0.88515880
30.11999982	-0.95742670
30.15999982	-1.01162800
30.19999982	-1.08389500
30.23999982	-1.15616300
30.27999982	-1.19223600
30.31999982	-1.22837000
30.35999982	-1.26450400
30.39999982	-1.28257100
30.43999982	-1.26450400
30.47999981	-1.24643700
30.51999981	-1.22837000
30.55999981	-1.15616300
30.59999981	-1.10196200
30.63999981	-1.01162800
30.67999981	-0.90322580
30.71999981	-0.81289100
30.75999981	-0.66835530
30.79999981	-0.54194770
30.83999981	-0.43354590
30.87999981	-0.28901030
30.91999981	-0.16254160
30.95999981	-0.03607288
30.99999981	0.07220680
31.03999981	0.18060850
31.07999981	0.28901030
31.11999981	0.37934510
31.15999981	0.46967990
31.19999981	0.56001470
31.23999981	0.63222150
31.27999981	0.72255620
31.31999981	0.79482410
31.35999981	0.86709190
31.39999981	0.93935970
31.43999981	1.01162800
31.47999981	1.10196200
31.51999981	1.17416900
31.55999981	1.22837000
31.59999981	1.28257100
31.63999981	1.31870500
31.67999981	1.33677200
31.71999981	1.33677200
31.75999981	1.31870500
31.79999981	1.30063800
31.83999981	1.22837000
31.87999981	1.15616300
31.91999981	1.08389500
31.95999981	0.97549360
31.99999981	0.84902500
32.03999981	0.72255620
32.07999981	0.59608750
32.11999980	0.46967990
32.15999980	0.34321110
32.19999980	0.21674250
32.23999980	0.09027375
32.27999980	-0.01800592
32.31999980	-0.12640770
32.35999980	-0.21674250
32.39999980	-0.30707720
32.43999980	-0.37934510
32.47999980	-0.45161290
32.51999980	-0.54194770
32.55999980	-0.59608750
32.59999980	-0.66835530
32.63999980	-0.72255620
32.67999980	-0.79482410
32.71999980	-0.86709190
32.75999980	-0.93935970
32.79999980	-1.01162800
32.83999980	-1.06582800
32.87999980	-1.12002900
32.91999980	-1.17416900
32.95999980	-1.22837000
