Time	Channel A
(us)	(V)

0.00000000	-0.57808160
0.04000000	-0.43354590
0.08000000	-0.30707720
0.12000000	-0.18060850
0.16000000	-0.05413984
0.20000000	0.05413984
0.24000000	0.18060850
0.28000000	0.28901030
0.32000000	0.36127810
0.36000000	0.46967990
0.40000000	0.54194770
0.44000000	0.63222150
0.48000000	0.70448930
0.52000000	0.77675710
0.56000000	0.84902500
0.60000000	0.93935970
0.64000000	1.02969500
0.68000000	1.08389500
0.72000000	1.17416900
0.76000000	1.22837000
0.80000000	1.28257100
0.83999999	1.31870500
0.87999999	1.33677200
0.91999999	1.33677200
0.95999999	1.33677200
0.99999999	1.28257100
1.03999999	1.22837000
1.07999999	1.15616300
1.11999999	1.06582800
1.15999999	0.95742670
1.19999999	0.84902500
1.23999999	0.72255620
1.27999999	0.59608750
1.31999999	0.48774680
1.35999999	0.34321110
1.39999999	0.21674250
1.43999999	0.09027375
1.47999999	-0.01800592
1.51999999	-0.10834070
1.55999999	-0.21674250
1.59999999	-0.28901030
1.63999999	-0.37934510
1.67999999	-0.45161290
1.71999999	-0.52388070
1.75999999	-0.59608750
1.79999999	-0.66835530
1.83999999	-0.72255620
1.87999999	-0.79482410
1.91999999	-0.86709190
1.95999999	-0.92129280
1.99999999	-1.01162800
2.03999999	-1.06582800
2.07999999	-1.12002900
2.11999999	-1.17416900
2.15999999	-1.22837000
2.19999999	-1.24643700
2.23999999	-1.28257100
2.27999999	-1.28257100
2.31999999	-1.26450400
2.35999999	-1.22837000
2.39999999	-1.19223600
2.43999999	-1.12002900
2.47999998	-1.02969500
2.51999998	-0.93935970
2.55999998	-0.83095790
2.59999998	-0.70448930
2.63999998	-0.59608750
2.67999998	-0.45161290
2.71999998	-0.32514420
2.75999998	-0.21674250
2.79999998	-0.07220680
2.83999998	0.03607288
2.87999998	0.14447460
2.91999998	0.25287640
2.95999998	0.36127810
2.99999998	0.43354590
3.03999998	0.52388070
3.07999998	0.59608750
3.11999998	0.68642230
3.15999998	0.75869010
3.19999998	0.84902500
3.23999998	0.92129280
3.27999998	1.01162800
3.31999998	1.08389500
3.35999998	1.15616300
3.39999998	1.21030300
3.43999998	1.28257100
3.47999998	1.31870500
3.51999998	1.33677200
3.55999998	1.35483900
3.59999998	1.33677200
3.63999998	1.30063800
3.67999998	1.24643700
3.71999998	1.17416900
3.75999998	1.08389500
3.79999998	0.99356060
3.83999998	0.88515880
3.87999998	0.75869010
3.91999998	0.63222150
3.95999998	0.50581380
3.99999998	0.36127810
4.03999998	0.23480940
4.07999998	0.12640770
4.11999997	0.01800592
4.15999997	-0.09027375
4.19999997	-0.19867550
4.23999997	-0.28901030
4.27999997	-0.36127810
4.31999997	-0.43354590
4.35999997	-0.52388070
4.39999997	-0.57808160
4.43999997	-0.65028840
4.47999997	-0.72255620
4.51999997	-0.79482410
4.55999997	-0.84902500
4.59999997	-0.92129280
4.63999997	-0.99356060
4.67999997	-1.04776100
4.71999997	-1.12002900
4.75999997	-1.15616300
4.79999997	-1.21030300
4.83999997	-1.24643700
4.87999997	-1.26450400
4.91999997	-1.26450400
4.95999997	-1.26450400
4.99999997	-1.22837000
5.03999997	-1.19223600
5.07999997	-1.13809600
5.11999997	-1.04776100
5.15999997	-0.95742670
5.19999997	-0.86709190
5.23999997	-0.74062320
5.27999997	-0.61415450
5.31999997	-0.48774680
5.35999997	-0.36127810
5.39999997	-0.23480940
5.43999997	-0.10834070
5.47999997	0.00000000
5.51999997	0.12640770
5.55999997	0.23480940
5.59999997	0.34321110
5.63999997	0.41547900
5.67999997	0.50581380
5.71999997	0.59608750
5.75999996	0.66835530
5.79999996	0.75869010
5.83999996	0.83095790
5.87999996	0.92129280
5.91999996	0.99356060
5.95999996	1.06582800
5.99999996	1.15616300
6.03999996	1.21030300
6.07999996	1.26450400
6.11999996	1.30063800
6.15999996	1.33677200
6.19999996	1.33677200
6.23999996	1.31870500
6.27999996	1.30063800
6.31999996	1.24643700
6.35999996	1.17416900
6.39999996	1.10196200
6.43999996	1.01162800
6.47999996	0.90322580
6.51999996	0.77675710
6.55999996	0.65028840
6.59999996	0.54194770
6.63999996	0.39741200
6.67999996	0.27094330
6.71999996	0.16254160
6.75999996	0.05413984
6.79999996	-0.07220680
6.83999996	-0.16254160
6.87999996	-0.25287640
6.91999996	-0.34321110
6.95999996	-0.41547900
6.99999996	-0.50581380
7.03999996	-0.57808160
7.07999996	-0.63222150
7.11999996	-0.70448930
7.15999996	-0.77675710
7.19999996	-0.84902500
7.23999996	-0.90322580
7.27999996	-0.97549360
7.31999996	-1.04776100
7.35999996	-1.10196200
7.39999996	-1.15616300
7.43999995	-1.19223600
7.47999995	-1.24643700
7.51999995	-1.26450400
7.55999995	-1.26450400
7.59999995	-1.26450400
7.63999995	-1.22837000
7.67999995	-1.19223600
7.71999995	-1.13809600
7.75999995	-1.06582800
7.79999995	-0.97549360
7.83999995	-0.86709190
7.87999995	-0.75869010
7.91999995	-0.65028840
7.95999995	-0.52388070
7.99999995	-0.39741200
8.03999995	-0.25287640
8.07999995	-0.14447460
8.11999995	-0.01800592
8.15999995	0.09027375
8.19999995	0.21674250
8.23999995	0.30707720
8.27999995	0.41547900
8.31999995	0.48774680
8.35999995	0.57808160
8.39999995	0.65028840
8.43999995	0.72255620
8.47999995	0.81289100
8.51999995	0.88515880
8.55999995	0.99356060
8.59999995	1.06582800
8.63999995	1.13809600
8.67999995	1.19223600
8.71999995	1.26450400
8.75999995	1.30063800
8.79999995	1.33677200
8.83999995	1.35483900
8.87999995	1.33677200
8.91999995	1.30063800
8.95999995	1.26450400
8.99999995	1.21030300
9.03999995	1.12002900
9.07999994	1.02969500
9.11999994	0.92129280
9.15999994	0.79482410
9.19999994	0.68642230
9.23999994	0.56001470
9.27999994	0.43354590
9.31999994	0.28901030
9.35999994	0.18060850
9.39999994	0.05413984
9.43999994	-0.05413984
9.47999994	-0.14447460
9.51999994	-0.23480940
9.55999994	-0.32514420
9.59999994	-0.39741200
9.63999994	-0.46967990
9.67999994	-0.54194770
9.71999994	-0.61415450
9.75999994	-0.68642230
9.79999994	-0.75869010
9.83999994	-0.83095790
9.87999994	-0.88515880
9.91999994	-0.95742670
9.95999994	-1.02969500
9.99999994	-1.10196200
10.03999994	-1.15616300
10.07999994	-1.21030300
10.11999994	-1.22837000
10.15999994	-1.26450400
10.19999994	-1.26450400
10.23999994	-1.26450400
10.27999994	-1.24643700
10.31999994	-1.21030300
10.35999994	-1.17416900
10.39999994	-1.10196200
10.43999994	-1.01162800
10.47999994	-0.90322580
10.51999994	-0.79482410
10.55999994	-0.66835530
10.59999994	-0.54194770
10.63999994	-0.41547900
10.67999994	-0.28901030
10.71999993	-0.16254160
10.75999993	-0.03607288
10.79999993	0.07220680
10.83999993	0.18060850
10.87999993	0.28901030
10.91999993	0.37934510
10.95999993	0.48774680
10.99999993	0.56001470
11.03999993	0.63222150
11.07999993	0.70448930
11.11999993	0.79482410
11.15999993	0.86709190
11.19999993	0.93935970
11.23999993	1.02969500
11.27999993	1.10196200
11.31999993	1.19223600
11.35999993	1.22837000
11.39999993	1.30063800
11.43999993	1.31870500
11.47999993	1.35483900
11.51999993	1.33677200
11.55999993	1.31870500
11.59999993	1.28257100
11.63999993	1.22837000
11.67999993	1.15616300
11.71999993	1.06582800
11.75999993	0.93935970
11.79999993	0.83095790
11.83999993	0.72255620
11.87999993	0.57808160
11.91999993	0.45161290
11.95999993	0.32514420
11.99999993	0.19867550
12.03999993	0.07220680
12.07999993	-0.03607288
12.11999993	-0.14447460
12.15999993	-0.23480940
12.19999993	-0.30707720
12.23999993	-0.39741200
12.27999993	-0.46967990
12.31999993	-0.54194770
12.35999992	-0.61415450
12.39999992	-0.66835530
12.43999992	-0.74062320
12.47999992	-0.81289100
12.51999992	-0.88515880
12.55999992	-0.93935970
12.59999992	-1.01162800
12.63999992	-1.08389500
12.67999992	-1.13809600
12.71999992	-1.19223600
12.75999992	-1.22837000
12.79999992	-1.24643700
12.83999992	-1.26450400
12.87999992	-1.28257100
12.91999992	-1.26450400
12.95999992	-1.22837000
12.99999992	-1.17416900
13.03999992	-1.12002900
13.07999992	-1.02969500
13.11999992	-0.93935970
13.15999992	-0.81289100
13.19999992	-0.70448930
13.23999992	-0.57808160
13.27999992	-0.43354590
13.31999992	-0.32514420
13.35999992	-0.18060850
13.39999992	-0.05413984
13.43999992	0.05413984
13.47999992	0.18060850
13.51999992	0.27094330
13.55999992	0.36127810
13.59999992	0.46967990
13.63999992	0.54194770
13.67999992	0.63222150
13.71999992	0.70448930
13.75999992	0.77675710
13.79999992	0.86709190
13.83999992	0.93935970
13.87999992	1.01162800
13.91999992	1.10196200
13.95999992	1.15616300
13.99999991	1.22837000
14.03999991	1.28257100
14.07999991	1.31870500
14.11999991	1.33677200
14.15999991	1.33677200
14.19999991	1.33677200
14.23999991	1.30063800
14.27999991	1.24643700
14.31999991	1.15616300
14.35999991	1.08389500
14.39999991	0.97549360
14.43999991	0.86709190
14.47999991	0.75869010
14.51999991	0.61415450
14.55999991	0.48774680
14.59999991	0.36127810
14.63999991	0.23480940
14.67999991	0.10834070
14.71999991	0.00000000
14.75999991	-0.10834070
14.79999991	-0.21674250
14.83999991	-0.28901030
14.87999991	-0.37934510
14.91999991	-0.45161290
14.95999991	-0.52388070
14.99999991	-0.59608750
15.03999991	-0.65028840
15.07999991	-0.72255620
15.11999991	-0.79482410
15.15999991	-0.86709190
15.19999991	-0.93935970
15.23999991	-0.99356060
15.27999991	-1.04776100
15.31999991	-1.12002900
15.35999991	-1.19223600
15.39999991	-1.22837000
15.43999991	-1.24643700
15.47999991	-1.26450400
15.51999991	-1.28257100
15.55999991	-1.26450400
15.59999991	-1.22837000
15.63999990	-1.17416900
15.67999990	-1.12002900
15.71999990	-1.02969500
15.75999990	-0.93935970
15.79999990	-0.83095790
15.83999990	-0.72255620
15.87999990	-0.59608750
15.91999990	-0.45161290
15.95999990	-0.34321110
15.99999990	-0.21674250
16.03999990	-0.09027375
16.07999990	0.01800592
16.11999990	0.14447460
16.15999990	0.25287640
16.19999990	0.34321110
16.23999990	0.43354590
16.27999990	0.52388070
16.31999990	0.61415450
16.35999990	0.68642230
16.39999990	0.75869010
16.43999990	0.84902500
16.47999990	0.92129280
16.51999990	1.01162800
16.55999990	1.08389500
16.59999990	1.15616300
16.63999990	1.22837000
16.67999990	1.28257100
16.71999990	1.30063800
16.75999990	1.33677200
16.79999990	1.33677200
16.83999990	1.31870500
16.87999990	1.30063800
16.91999990	1.24643700
16.95999990	1.17416900
16.99999990	1.08389500
17.03999990	0.99356060
17.07999990	0.88515880
17.11999990	0.75869010
17.15999990	0.65028840
17.19999990	0.52388070
17.23999990	0.39741200
17.27999989	0.27094330
17.31999989	0.14447460
17.35999989	0.01800592
17.39999989	-0.09027375
17.43999989	-0.18060850
17.47999989	-0.27094330
17.51999989	-0.36127810
17.55999989	-0.43354590
17.59999989	-0.52388070
17.63999989	-0.57808160
17.67999989	-0.65028840
17.71999989	-0.72255620
17.75999989	-0.79482410
17.79999989	-0.86709190
17.83999989	-0.92129280
17.87999989	-0.99356060
17.91999989	-1.04776100
17.95999989	-1.12002900
17.99999989	-1.17416900
18.03999989	-1.22837000
18.07999989	-1.24643700
18.11999989	-1.28257100
18.15999989	-1.28257100
18.19999989	-1.26450400
18.23999989	-1.24643700
18.27999989	-1.19223600
18.31999989	-1.13809600
18.35999989	-1.06582800
18.39999989	-0.97549360
18.43999989	-0.86709190
18.47999989	-0.74062320
18.51999989	-0.63222150
18.55999989	-0.50581380
18.59999989	-0.36127810
18.63999989	-0.23480940
18.67999989	-0.10834070
18.71999989	0.00000000
18.75999989	0.12640770
18.79999989	0.21674250
18.83999989	0.32514420
18.87999989	0.41547900
18.91999989	0.50581380
18.95999988	0.57808160
18.99999988	0.66835530
19.03999988	0.74062320
19.07999988	0.83095790
19.11999988	0.90322580
19.15999988	0.99356060
19.19999988	1.06582800
19.23999988	1.13809600
19.27999988	1.21030300
19.31999988	1.26450400
19.35999988	1.30063800
19.39999988	1.33677200
19.43999988	1.35483900
19.47999988	1.33677200
19.51999988	1.30063800
19.55999988	1.26450400
19.59999988	1.19223600
19.63999988	1.12002900
19.67999988	1.01162800
19.71999988	0.90322580
19.75999988	0.79482410
19.79999988	0.66835530
19.83999988	0.54194770
19.87999988	0.41547900
19.91999988	0.28901030
19.95999988	0.16254160
19.99999988	0.03607288
20.03999988	-0.07220680
20.07999988	-0.14447460
20.11999988	-0.25287640
20.15999988	-0.32514420
20.19999988	-0.41547900
20.23999988	-0.50581380
20.27999988	-0.57808160
20.31999988	-0.63222150
20.35999988	-0.68642230
20.39999988	-0.77675710
20.43999988	-0.84902500
20.47999988	-0.90322580
20.51999988	-0.97549360
20.55999988	-1.02969500
20.59999987	-1.10196200
20.63999987	-1.15616300
20.67999987	-1.21030300
20.71999987	-1.24643700
20.75999987	-1.26450400
20.79999987	-1.28257100
20.83999987	-1.26450400
20.87999987	-1.24643700
20.91999987	-1.21030300
20.95999987	-1.15616300
20.99999987	-1.08389500
21.03999987	-0.99356060
21.07999987	-0.88515880
21.11999987	-0.75869010
21.15999987	-0.65028840
21.19999987	-0.52388070
21.23999987	-0.39741200
21.27999987	-0.27094330
21.31999987	-0.14447460
21.35999987	-0.01800592
21.39999987	0.09027375
21.43999987	0.19867550
21.47999987	0.30707720
21.51999987	0.39741200
21.55999987	0.48774680
21.59999987	0.57808160
21.63999987	0.65028840
21.67999987	0.72255620
21.71999987	0.81289100
21.75999987	0.88515880
21.79999987	0.97549360
21.83999987	1.04776100
21.87999987	1.13809600
21.91999987	1.19223600
21.95999987	1.26450400
21.99999987	1.30063800
22.03999987	1.33677200
22.07999987	1.35483900
22.11999987	1.33677200
22.15999987	1.31870500
22.19999987	1.28257100
22.23999986	1.21030300
22.27999986	1.13809600
22.31999986	1.04776100
22.35999986	0.93935970
22.39999986	0.81289100
22.43999986	0.70448930
22.47999986	0.57808160
22.51999986	0.43354590
22.55999986	0.30707720
22.59999986	0.19867550
22.63999986	0.07220680
22.67999986	-0.03607288
22.71999986	-0.14447460
22.75999986	-0.23480940
22.79999986	-0.32514420
22.83999986	-0.39741200
22.87999986	-0.46967990
22.91999986	-0.56001470
22.95999986	-0.61415450
22.99999986	-0.68642230
23.03999986	-0.74062320
23.07999986	-0.81289100
23.11999986	-0.88515880
23.15999986	-0.95742670
23.19999986	-1.02969500
23.23999986	-1.08389500
23.27999986	-1.13809600
23.31999986	-1.19223600
23.35999986	-1.22837000
23.39999986	-1.26450400
23.43999986	-1.28257100
23.47999986	-1.28257100
23.51999986	-1.24643700
23.55999986	-1.22837000
23.59999986	-1.17416900
23.63999986	-1.10196200
23.67999986	-1.01162800
23.71999986	-0.92129280
23.75999986	-0.79482410
23.79999986	-0.68642230
23.83999986	-0.54194770
23.87999985	-0.43354590
23.91999985	-0.30707720
23.95999985	-0.18060850
23.99999985	-0.03607288
24.03999985	0.07220680
24.07999985	0.18060850
24.11999985	0.28901030
24.15999985	0.37934510
24.19999985	0.46967990
24.23999985	0.54194770
24.27999985	0.63222150
24.31999985	0.72255620
24.35999985	0.79482410
24.39999985	0.86709190
24.43999985	0.93935970
24.47999985	1.02969500
24.51999985	1.10196200
24.55999985	1.17416900
24.59999985	1.22837000
24.63999985	1.28257100
24.67999985	1.31870500
24.71999985	1.33677200
24.75999985	1.33677200
24.79999985	1.31870500
24.83999985	1.28257100
24.87999985	1.22837000
24.91999985	1.15616300
24.95999985	1.06582800
24.99999985	0.95742670
25.03999985	0.84902500
25.07999985	0.72255620
25.11999985	0.57808160
25.15999985	0.46967990
25.19999985	0.34321110
25.23999985	0.21674250
25.27999985	0.09027375
25.31999985	-0.01800592
25.35999985	-0.12640770
25.39999985	-0.21674250
25.43999985	-0.30707720
25.47999985	-0.37934510
25.51999984	-0.45161290
25.55999984	-0.52388070
25.59999984	-0.59608750
25.63999984	-0.65028840
25.67999984	-0.74062320
25.71999984	-0.79482410
25.75999984	-0.86709190
25.79999984	-0.93935970
25.83999984	-1.01162800
25.87999984	-1.08389500
25.91999984	-1.13809600
25.95999984	-1.19223600
25.99999984	-1.22837000
26.03999984	-1.26450400
26.07999984	-1.28257100
26.11999984	-1.28257100
26.15999984	-1.26450400
26.19999984	-1.22837000
26.23999984	-1.17416900
26.27999984	-1.10196200
26.31999984	-1.02969500
26.35999984	-0.93935970
26.39999984	-0.81289100
26.43999984	-0.70448930
26.47999984	-0.57808160
26.51999984	-0.45161290
26.55999984	-0.32514420
26.59999984	-0.19867550
26.63999984	-0.07220680
26.67999984	0.03607288
26.71999984	0.14447460
26.75999984	0.25287640
26.79999984	0.36127810
26.83999984	0.43354590
26.87999984	0.52388070
26.91999984	0.61415450
26.95999984	0.68642230
26.99999984	0.77675710
27.03999984	0.84902500
27.07999984	0.92129280
27.11999984	1.01162800
27.15999983	1.08389500
27.19999983	1.15616300
27.23999983	1.22837000
27.27999983	1.28257100
27.31999983	1.31870500
27.35999983	1.33677200
27.39999983	1.35483900
27.43999983	1.33677200
27.47999983	1.30063800
27.51999983	1.24643700
27.55999983	1.15616300
27.59999983	1.08389500
27.63999983	0.97549360
27.67999983	0.86709190
27.71999983	0.75869010
27.75999983	0.63222150
27.79999983	0.50581380
27.83999983	0.36127810
27.87999983	0.25287640
27.91999983	0.12640770
27.95999983	0.01800592
27.99999983	-0.09027375
28.03999983	-0.19867550
28.07999983	-0.28901030
28.11999983	-0.36127810
28.15999983	-0.43354590
28.19999983	-0.50581380
28.23999983	-0.57808160
28.27999983	-0.65028840
28.31999983	-0.72255620
28.35999983	-0.79482410
28.39999983	-0.86709190
28.43999983	-0.93935970
28.47999983	-0.99356060
28.51999983	-1.06582800
28.55999983	-1.12002900
28.59999983	-1.17416900
28.63999983	-1.22837000
28.67999983	-1.24643700
28.71999983	-1.26450400
28.75999983	-1.26450400
28.79999982	-1.26450400
28.83999982	-1.22837000
28.87999982	-1.19223600
28.91999982	-1.12002900
28.95999982	-1.04776100
28.99999982	-0.95742670
29.03999982	-0.84902500
29.07999982	-0.72255620
29.11999982	-0.61415450
29.15999982	-0.48774680
29.19999982	-0.36127810
29.23999982	-0.21674250
29.27999982	-0.09027375
29.31999982	0.01800592
29.35999982	0.14447460
29.39999982	0.23480940
29.43999982	0.34321110
29.47999982	0.43354590
29.51999982	0.50581380
29.55999982	0.59608750
29.59999982	0.66835530
29.63999982	0.75869010
29.67999982	0.83095790
29.71999982	0.92129280
29.75999982	1.01162800
29.79999982	1.08389500
29.83999982	1.13809600
29.87999982	1.21030300
29.91999982	1.26450400
29.95999982	1.30063800
29.99999982	1.33677200
30.03999982	1.33677200
30.07999982	1.31870500
30.11999982	1.30063800
30.15999982	1.26450400
30.19999982	1.19223600
30.23999982	1.10196200
30.27999982	1.01162800
30.31999982	0.90322580
30.35999982	0.77675710
30.39999982	0.65028840
30.43999982	0.52388070
30.47999981	0.39741200
30.51999981	0.27094330
30.55999981	0.14447460
30.59999981	0.03607288
30.63999981	-0.07220680
30.67999981	-0.16254160
30.71999981	-0.27094330
30.75999981	-0.36127810
30.79999981	-0.43354590
30.83999981	-0.50581380
30.87999981	-0.57808160
30.91999981	-0.63222150
30.95999981	-0.72255620
30.99999981	-0.77675710
31.03999981	-0.84902500
31.07999981	-0.92129280
31.11999981	-0.97549360
31.15999981	-1.04776100
31.19999981	-1.10196200
31.23999981	-1.15616300
31.27999981	-1.19223600
31.31999981	-1.24643700
31.35999981	-1.26450400
31.39999981	-1.26450400
31.43999981	-1.26450400
31.47999981	-1.24643700
31.51999981	-1.19223600
31.55999981	-1.13809600
31.59999981	-1.06582800
31.63999981	-0.97549360
31.67999981	-0.86709190
31.71999981	-0.75869010
31.75999981	-0.63222150
31.79999981	-0.50581380
31.83999981	-0.37934510
31.87999981	-0.25287640
31.91999981	-0.14447460
31.95999981	-0.01800592
31.99999981	0.10834070
32.03999981	0.21674250
32.07999981	0.30707720
32.11999980	0.41547900
32.15999980	0.50581380
32.19999980	0.57808160
32.23999980	0.65028840
32.27999980	0.72255620
32.31999980	0.81289100
32.35999980	0.90322580
32.39999980	0.99356060
32.43999980	1.06582800
32.47999980	1.13809600
32.51999980	1.21030300
32.55999980	1.26450400
32.59999980	1.30063800
32.63999980	1.33677200
32.67999980	1.33677200
32.71999980	1.33677200
32.75999980	1.30063800
32.79999980	1.26450400
32.83999980	1.21030300
32.87999980	1.12002900
32.91999980	1.02969500
32.95999980	0.92129280
