Time	Channel A
(us)	(V)

0.00000000	0.45161290
0.04000000	0.52388070
0.08000000	0.61415450
0.12000000	0.68642230
0.16000000	0.75869010
0.20000000	0.84902500
0.24000000	0.92129280
0.28000000	1.01162800
0.32000000	1.08389500
0.36000000	1.15616300
0.40000000	1.22837000
0.44000000	1.28257100
0.48000000	1.30063800
0.52000000	1.33677200
0.56000000	1.35483900
0.60000000	1.33677200
0.64000000	1.30063800
0.68000000	1.24643700
0.72000000	1.19223600
0.76000000	1.10196200
0.80000000	1.01162800
0.83999999	0.88515880
0.87999999	0.77675710
0.91999999	0.65028840
0.95999999	0.50581380
0.99999999	0.37934510
1.03999999	0.25287640
1.07999999	0.14447460
1.11999999	0.01800592
1.15999999	-0.07220680
1.19999999	-0.18060850
1.23999999	-0.28901030
1.27999999	-0.36127810
1.31999999	-0.43354590
1.35999999	-0.50581380
1.39999999	-0.57808160
1.43999999	-0.65028840
1.47999999	-0.70448930
1.51999999	-0.79482410
1.55999999	-0.84902500
1.59999999	-0.92129280
1.63999999	-0.97549360
1.67999999	-1.04776100
1.71999999	-1.12002900
1.75999999	-1.15616300
1.79999999	-1.21030300
1.83999999	-1.24643700
1.87999999	-1.26450400
1.91999999	-1.26450400
1.95999999	-1.30063800
1.99999999	-1.24643700
2.03999999	-1.19223600
2.07999999	-1.13809600
2.11999999	-1.08389500
2.15999999	-0.97549360
2.19999999	-0.86709190
2.23999999	-0.74062320
2.27999999	-0.61415450
2.31999999	-0.50581380
2.35999999	-0.36127810
2.39999999	-0.23480940
2.43999999	-0.10834070
2.47999998	0.00000000
2.51999998	0.12640770
2.55999998	0.23480940
2.59999998	0.32514420
2.63999998	0.43354590
2.67999998	0.50581380
2.71999998	0.57808160
2.75999998	0.66835530
2.79999998	0.74062320
2.83999998	0.83095790
2.87999998	0.90322580
2.91999998	0.99356060
2.95999998	1.06582800
2.99999998	1.13809600
3.03999998	1.21030300
3.07999998	1.26450400
3.11999998	1.30063800
3.15999998	1.33677200
3.19999998	1.35483900
3.23999998	1.33677200
3.27999998	1.30063800
3.31999998	1.28257100
3.35999998	1.21030300
3.39999998	1.12002900
3.43999998	1.02969500
3.47999998	0.92129280
3.51999998	0.79482410
3.55999998	0.66835530
3.59999998	0.54194770
3.63999998	0.41547900
3.67999998	0.28901030
3.71999998	0.16254160
3.75999998	0.05413984
3.79999998	-0.05413984
3.83999998	-0.16254160
3.87999998	-0.25287640
3.91999998	-0.34321110
3.95999998	-0.41547900
3.99999998	-0.50581380
4.03999998	-0.57808160
4.07999998	-0.63222150
4.11999997	-0.70448930
4.15999997	-0.77675710
4.19999997	-0.84902500
4.23999997	-0.90322580
4.27999997	-0.97549360
4.31999997	-1.02969500
4.35999997	-1.10196200
4.39999997	-1.15616300
4.43999997	-1.21030300
4.47999997	-1.22837000
4.51999997	-1.26450400
4.55999997	-1.26450400
4.59999997	-1.26450400
4.63999997	-1.24643700
4.67999997	-1.21030300
4.71999997	-1.15616300
4.75999997	-1.08389500
4.79999997	-0.99356060
4.83999997	-0.88515880
4.87999997	-0.77675710
4.91999997	-0.65028840
4.95999997	-0.52388070
4.99999997	-0.39741200
5.03999997	-0.27094330
5.07999997	-0.14447460
5.11999997	-0.01800592
5.15999997	0.09027375
5.19999997	0.21674250
5.23999997	0.30707720
5.27999997	0.39741200
5.31999997	0.50581380
5.35999997	0.57808160
5.39999997	0.65028840
5.43999997	0.74062320
5.47999997	0.79482410
5.51999997	0.88515880
5.55999997	0.97549360
5.59999997	1.04776100
5.63999997	1.13809600
5.67999997	1.19223600
5.71999997	1.26450400
5.75999996	1.30063800
5.79999996	1.33677200
5.83999996	1.35483900
5.87999996	1.35483900
5.91999996	1.31870500
5.95999996	1.26450400
5.99999996	1.21030300
6.03999996	1.13809600
6.07999996	1.04776100
6.11999996	0.93935970
6.15999996	0.83095790
6.19999996	0.70448930
6.23999996	0.57808160
6.27999996	0.43354590
6.31999996	0.30707720
6.35999996	0.18060850
6.39999996	0.07220680
6.43999996	-0.03607288
6.47999996	-0.14447460
6.51999996	-0.23480940
6.55999996	-0.32514420
6.59999996	-0.41547900
6.63999996	-0.46967990
6.67999996	-0.56001470
6.71999996	-0.61415450
6.75999996	-0.68642230
6.79999996	-0.75869010
6.83999996	-0.83095790
6.87999996	-0.88515880
6.91999996	-0.95742670
6.95999996	-1.01162800
6.99999996	-1.08389500
7.03999996	-1.13809600
7.07999996	-1.19223600
7.11999996	-1.22837000
7.15999996	-1.26450400
7.19999996	-1.28257100
7.23999996	-1.26450400
7.27999996	-1.24643700
7.31999996	-1.22837000
7.35999996	-1.17416900
7.39999996	-1.08389500
7.43999995	-1.01162800
7.47999995	-0.90322580
7.51999995	-0.79482410
7.55999995	-0.66835530
7.59999995	-0.56001470
7.63999995	-0.43354590
7.67999995	-0.28901030
7.71999995	-0.16254160
7.75999995	-0.05413984
7.79999995	0.07220680
7.83999995	0.18060850
7.87999995	0.28901030
7.91999995	0.37934510
7.95999995	0.48774680
7.99999995	0.56001470
8.03999995	0.63222150
8.07999995	0.72255620
8.11999995	0.79482410
8.15999995	0.88515880
8.19999995	0.95742670
8.23999995	1.02969500
8.27999995	1.12002900
8.31999995	1.17416900
8.35999995	1.22837000
8.39999995	1.28257100
8.43999995	1.31870500
8.47999995	1.35483900
8.51999995	1.35483900
8.55999995	1.33677200
8.59999995	1.28257100
8.63999995	1.22837000
8.67999995	1.15616300
8.71999995	1.06582800
8.75999995	0.95742670
8.79999995	0.84902500
8.83999995	0.72255620
8.87999995	0.59608750
8.91999995	0.46967990
8.95999995	0.34321110
8.99999995	0.21674250
9.03999995	0.09027375
9.07999994	-0.01800592
9.11999994	-0.12640770
9.15999994	-0.21674250
9.19999994	-0.30707720
9.23999994	-0.37934510
9.27999994	-0.45161290
9.31999994	-0.54194770
9.35999994	-0.61415450
9.39999994	-0.66835530
9.43999994	-0.74062320
9.47999994	-0.81289100
9.51999994	-0.86709190
9.55999994	-0.93935970
9.59999994	-1.01162800
9.63999994	-1.08389500
9.67999994	-1.13809600
9.71999994	-1.19223600
9.75999994	-1.22837000
9.79999994	-1.24643700
9.83999994	-1.26450400
9.87999994	-1.26450400
9.91999994	-1.26450400
9.95999994	-1.22837000
9.99999994	-1.17416900
10.03999994	-1.12002900
10.07999994	-1.02969500
10.11999994	-0.93935970
10.15999994	-0.83095790
10.19999994	-0.72255620
10.23999994	-0.59608750
10.27999994	-0.45161290
10.31999994	-0.32514420
10.35999994	-0.19867550
10.39999994	-0.07220680
10.43999994	0.03607288
10.47999994	0.16254160
10.51999994	0.27094330
10.55999994	0.36127810
10.59999994	0.45161290
10.63999994	0.54194770
10.67999994	0.63222150
10.71999993	0.70448930
10.75999993	0.79482410
10.79999993	0.86709190
10.83999993	0.93935970
10.87999993	1.01162800
10.91999993	1.10196200
10.95999993	1.17416900
10.99999993	1.22837000
11.03999993	1.28257100
11.07999993	1.30063800
11.11999993	1.33677200
11.15999993	1.33677200
11.19999993	1.31870500
11.23999993	1.30063800
11.27999993	1.24643700
11.31999993	1.17416900
11.35999993	1.08389500
11.39999993	0.99356060
11.43999993	0.88515880
11.47999993	0.75869010
11.51999993	0.63222150
11.55999993	0.50581380
11.59999993	0.36127810
11.63999993	0.25287640
11.67999993	0.12640770
11.71999993	0.00000000
11.75999993	-0.09027375
11.79999993	-0.19867550
11.83999993	-0.28901030
11.87999993	-0.36127810
11.91999993	-0.43354590
11.95999993	-0.52388070
11.99999993	-0.59608750
12.03999993	-0.65028840
12.07999993	-0.72255620
12.11999993	-0.79482410
12.15999993	-0.86709190
12.19999993	-0.93935970
12.23999993	-0.99356060
12.27999993	-1.04776100
12.31999993	-1.12002900
12.35999992	-1.17416900
12.39999992	-1.22837000
12.43999992	-1.24643700
12.47999992	-1.26450400
12.51999992	-1.28257100
12.55999992	-1.24643700
12.59999992	-1.22837000
12.63999992	-1.19223600
12.67999992	-1.13809600
12.71999992	-1.04776100
12.75999992	-0.95742670
12.79999992	-0.84902500
12.83999992	-0.74062320
12.87999992	-0.61415450
12.91999992	-0.48774680
12.95999992	-0.36127810
12.99999992	-0.23480940
13.03999992	-0.09027375
13.07999992	0.01800592
13.11999992	0.14447460
13.15999992	0.25287640
13.19999992	0.34321110
13.23999992	0.43354590
13.27999992	0.52388070
13.31999992	0.59608750
13.35999992	0.68642230
13.39999992	0.75869010
13.43999992	0.84902500
13.47999992	0.92129280
13.51999992	0.99356060
13.55999992	1.08389500
13.59999992	1.15616300
13.63999992	1.21030300
13.67999992	1.26450400
13.71999992	1.31870500
13.75999992	1.33677200
13.79999992	1.33677200
13.83999992	1.33677200
13.87999992	1.30063800
13.91999992	1.26450400
13.95999992	1.19223600
13.99999991	1.10196200
14.03999991	1.01162800
14.07999991	0.90322580
14.11999991	0.77675710
14.15999991	0.65028840
14.19999991	0.52388070
14.23999991	0.39741200
14.27999991	0.27094330
14.31999991	0.14447460
14.35999991	0.03607288
14.39999991	-0.07220680
14.43999991	-0.18060850
14.47999991	-0.27094330
14.51999991	-0.36127810
14.55999991	-0.43354590
14.59999991	-0.50581380
14.63999991	-0.57808160
14.67999991	-0.65028840
14.71999991	-0.72255620
14.75999991	-0.79482410
14.79999991	-0.84902500
14.83999991	-0.92129280
14.87999991	-0.99356060
14.91999991	-1.04776100
14.95999991	-1.10196200
14.99999991	-1.15616300
15.03999991	-1.21030300
15.07999991	-1.24643700
15.11999991	-1.26450400
15.15999991	-1.28257100
15.19999991	-1.26450400
15.23999991	-1.24643700
15.27999991	-1.19223600
15.31999991	-1.13809600
15.35999991	-1.06582800
15.39999991	-0.97549360
15.43999991	-0.86709190
15.47999991	-0.75869010
15.51999991	-0.65028840
15.55999991	-0.52388070
15.59999991	-0.37934510
15.63999990	-0.25287640
15.67999990	-0.12640770
15.71999990	0.00000000
15.75999990	0.10834070
15.79999990	0.21674250
15.83999990	0.32514420
15.87999990	0.41547900
15.91999990	0.50581380
15.95999990	0.57808160
15.99999990	0.65028840
16.03999990	0.74062320
16.07999990	0.81289100
16.11999990	0.90322580
16.15999990	0.99356060
16.19999990	1.06582800
16.23999990	1.13809600
16.27999990	1.19223600
16.31999990	1.26450400
16.35999990	1.30063800
16.39999990	1.33677200
16.43999990	1.33677200
16.47999990	1.33677200
16.51999990	1.30063800
16.55999990	1.26450400
16.59999990	1.21030300
16.63999990	1.12002900
16.67999990	1.02969500
16.71999990	0.90322580
16.75999990	0.79482410
16.79999990	0.68642230
16.83999990	0.56001470
16.87999990	0.43354590
16.91999990	0.28901030
16.95999990	0.18060850
16.99999990	0.07220680
17.03999990	-0.05413984
17.07999990	-0.14447460
17.11999990	-0.23480940
17.15999990	-0.32514420
17.19999990	-0.41547900
17.23999990	-0.48774680
17.27999989	-0.56001470
17.31999989	-0.63222150
17.35999989	-0.70448930
17.39999989	-0.77675710
17.43999989	-0.84902500
17.47999989	-0.90322580
17.51999989	-0.97549360
17.55999989	-1.02969500
17.59999989	-1.10196200
17.63999989	-1.15616300
17.67999989	-1.21030300
17.71999989	-1.22837000
17.75999989	-1.26450400
17.79999989	-1.28257100
17.83999989	-1.26450400
17.87999989	-1.24643700
17.91999989	-1.21030300
17.95999989	-1.15616300
17.99999989	-1.08389500
18.03999989	-0.99356060
18.07999989	-0.88515880
18.11999989	-0.79482410
18.15999989	-0.65028840
18.19999989	-0.54194770
18.23999989	-0.41547900
18.27999989	-0.28901030
18.31999989	-0.16254160
18.35999989	-0.03607288
18.39999989	0.07220680
18.43999989	0.18060850
18.47999989	0.28901030
18.51999989	0.37934510
18.55999989	0.48774680
18.59999989	0.56001470
18.63999989	0.65028840
18.67999989	0.72255620
18.71999989	0.81289100
18.75999989	0.88515880
18.79999989	0.97549360
18.83999989	1.04776100
18.87999989	1.13809600
18.91999989	1.19223600
18.95999988	1.26450400
18.99999988	1.30063800
19.03999988	1.33677200
19.07999988	1.35483900
19.11999988	1.33677200
19.15999988	1.31870500
19.19999988	1.28257100
19.23999988	1.21030300
19.27999988	1.13809600
19.31999988	1.04776100
19.35999988	0.93935970
19.39999988	0.81289100
19.43999988	0.70448930
19.47999988	0.57808160
19.51999988	0.45161290
19.55999988	0.30707720
19.59999988	0.19867550
19.63999988	0.07220680
19.67999988	-0.01800592
19.71999988	-0.12640770
19.75999988	-0.21674250
19.79999988	-0.30707720
19.83999988	-0.37934510
19.87999988	-0.45161290
19.91999988	-0.52388070
19.95999988	-0.59608750
19.99999988	-0.66835530
20.03999988	-0.74062320
20.07999988	-0.81289100
20.11999988	-0.88515880
20.15999988	-0.95742670
20.19999988	-1.02969500
20.23999988	-1.08389500
20.27999988	-1.15616300
20.31999988	-1.19223600
20.35999988	-1.22837000
20.39999988	-1.26450400
20.43999988	-1.26450400
20.47999988	-1.28257100
20.51999988	-1.26450400
20.55999988	-1.22837000
20.59999987	-1.15616300
20.63999987	-1.10196200
20.67999987	-1.01162800
20.71999987	-0.92129280
20.75999987	-0.81289100
20.79999987	-0.68642230
20.83999987	-0.56001470
20.87999987	-0.43354590
20.91999987	-0.30707720
20.95999987	-0.18060850
20.99999987	-0.05413984
21.03999987	0.05413984
21.07999987	0.16254160
21.11999987	0.27094330
21.15999987	0.36127810
21.19999987	0.45161290
21.23999987	0.54194770
21.27999987	0.61415450
21.31999987	0.70448930
21.35999987	0.77675710
21.39999987	0.86709190
21.43999987	0.93935970
21.47999987	1.02969500
21.51999987	1.10196200
21.55999987	1.15616300
21.59999987	1.22837000
21.63999987	1.28257100
21.67999987	1.31870500
21.71999987	1.33677200
21.75999987	1.33677200
21.79999987	1.33677200
21.83999987	1.28257100
21.87999987	1.22837000
21.91999987	1.15616300
21.95999987	1.06582800
21.99999987	0.97549360
22.03999987	0.84902500
22.07999987	0.72255620
22.11999987	0.59608750
22.15999987	0.46967990
22.19999987	0.34321110
22.23999986	0.21674250
22.27999986	0.09027375
22.31999986	0.00000000
22.35999986	-0.10834070
22.39999986	-0.21674250
22.43999986	-0.30707720
22.47999986	-0.37934510
22.51999986	-0.46967990
22.55999986	-0.52388070
22.59999986	-0.59608750
22.63999986	-0.65028840
22.67999986	-0.72255620
22.71999986	-0.79482410
22.75999986	-0.86709190
22.79999986	-0.93935970
22.83999986	-0.99356060
22.87999986	-1.04776100
22.91999986	-1.12002900
22.95999986	-1.17416900
22.99999986	-1.22837000
23.03999986	-1.24643700
23.07999986	-1.26450400
23.11999986	-1.26450400
23.15999986	-1.26450400
23.19999986	-1.22837000
23.23999986	-1.17416900
23.27999986	-1.12002900
23.31999986	-1.02969500
23.35999986	-0.93935970
23.39999986	-0.83095790
23.43999986	-0.72255620
23.47999986	-0.59608750
23.51999986	-0.46967990
23.55999986	-0.34321110
23.59999986	-0.21674250
23.63999986	-0.07220680
23.67999986	0.03607288
23.71999986	0.16254160
23.75999986	0.25287640
23.79999986	0.36127810
23.83999986	0.45161290
23.87999985	0.52388070
23.91999985	0.61415450
23.95999985	0.68642230
23.99999985	0.75869010
24.03999985	0.83095790
24.07999985	0.92129280
24.11999985	1.01162800
24.15999985	1.08389500
24.19999985	1.15616300
24.23999985	1.21030300
24.27999985	1.28257100
24.31999985	1.30063800
24.35999985	1.33677200
24.39999985	1.35483900
24.43999985	1.33677200
24.47999985	1.30063800
24.51999985	1.24643700
24.55999985	1.17416900
24.59999985	1.08389500
24.63999985	0.99356060
24.67999985	0.88515880
24.71999985	0.75869010
24.75999985	0.63222150
24.79999985	0.50581380
24.83999985	0.37934510
24.87999985	0.25287640
24.91999985	0.12640770
24.95999985	0.01800592
24.99999985	-0.09027375
25.03999985	-0.19867550
25.07999985	-0.28901030
25.11999985	-0.36127810
25.15999985	-0.43354590
25.19999985	-0.50581380
25.23999985	-0.57808160
25.27999985	-0.65028840
25.31999985	-0.72255620
25.35999985	-0.79482410
25.39999985	-0.84902500
25.43999985	-0.92129280
25.47999985	-0.99356060
25.51999984	-1.04776100
25.55999984	-1.10196200
25.59999984	-1.15616300
25.63999984	-1.21030300
25.67999984	-1.24643700
25.71999984	-1.26450400
25.75999984	-1.28257100
25.79999984	-1.26450400
25.83999984	-1.22837000
25.87999984	-1.19223600
25.91999984	-1.13809600
25.95999984	-1.04776100
25.99999984	-0.95742670
26.03999984	-0.86709190
26.07999984	-0.74062320
26.11999984	-0.61415450
26.15999984	-0.48774680
26.19999984	-0.36127810
26.23999984	-0.23480940
26.27999984	-0.10834070
26.31999984	0.01800592
26.35999984	0.12640770
26.39999984	0.23480940
26.43999984	0.34321110
26.47999984	0.43354590
26.51999984	0.50581380
26.55999984	0.57808160
26.59999984	0.68642230
26.63999984	0.75869010
26.67999984	0.83095790
26.71999984	0.90322580
26.75999984	0.99356060
26.79999984	1.08389500
26.83999984	1.13809600
26.87999984	1.21030300
26.91999984	1.26450400
26.95999984	1.30063800
26.99999984	1.33677200
27.03999984	1.33677200
27.07999984	1.33677200
27.11999984	1.30063800
27.15999983	1.24643700
27.19999983	1.17416900
27.23999983	1.10196200
27.27999983	1.01162800
27.31999983	0.90322580
27.35999983	0.77675710
27.39999983	0.65028840
27.43999983	0.52388070
27.47999983	0.41547900
27.51999983	0.27094330
27.55999983	0.14447460
27.59999983	0.03607288
27.63999983	-0.07220680
27.67999983	-0.16254160
27.71999983	-0.25287640
27.75999983	-0.34321110
27.79999983	-0.41547900
27.83999983	-0.50581380
27.87999983	-0.57808160
27.91999983	-0.63222150
27.95999983	-0.70448930
27.99999983	-0.77675710
28.03999983	-0.84902500
28.07999983	-0.90322580
28.11999983	-0.97549360
28.15999983	-1.04776100
28.19999983	-1.10196200
28.23999983	-1.15616300
28.27999983	-1.19223600
28.31999983	-1.24643700
28.35999983	-1.26450400
28.39999983	-1.26450400
28.43999983	-1.26450400
28.47999983	-1.24643700
28.51999983	-1.19223600
28.55999983	-1.15616300
28.59999983	-1.06582800
28.63999983	-0.97549360
28.67999983	-0.86709190
28.71999983	-0.77675710
28.75999983	-0.65028840
28.79999982	-0.52388070
28.83999982	-0.37934510
28.87999982	-0.27094330
28.91999982	-0.12640770
28.95999982	-0.01800592
28.99999982	0.10834070
29.03999982	0.21674250
29.07999982	0.30707720
29.11999982	0.41547900
29.15999982	0.48774680
29.19999982	0.56001470
29.23999982	0.65028840
29.27999982	0.72255620
29.31999982	0.81289100
29.35999982	0.90322580
29.39999982	0.97549360
29.43999982	1.04776100
29.47999982	1.13809600
29.51999982	1.19223600
29.55999982	1.26450400
29.59999982	1.30063800
29.63999982	1.33677200
29.67999982	1.35483900
29.71999982	1.35483900
29.75999982	1.31870500
29.79999982	1.26450400
29.83999982	1.21030300
29.87999982	1.12002900
29.91999982	1.02969500
29.95999982	0.92129280
29.99999982	0.79482410
30.03999982	0.68642230
30.07999982	0.56001470
30.11999982	0.43354590
30.15999982	0.28901030
30.19999982	0.18060850
30.23999982	0.05413984
30.27999982	-0.05413984
30.31999982	-0.14447460
30.35999982	-0.23480940
30.39999982	-0.32514420
30.43999982	-0.41547900
30.47999981	-0.46967990
30.51999981	-0.54194770
30.55999981	-0.61415450
30.59999981	-0.68642230
30.63999981	-0.75869010
30.67999981	-0.81289100
30.71999981	-0.88515880
30.75999981	-0.95742670
30.79999981	-1.01162800
30.83999981	-1.08389500
30.87999981	-1.15616300
30.91999981	-1.19223600
30.95999981	-1.22837000
30.99999981	-1.26450400
31.03999981	-1.28257100
31.07999981	-1.26450400
31.11999981	-1.24643700
31.15999981	-1.21030300
31.19999981	-1.15616300
31.23999981	-1.08389500
31.27999981	-1.01162800
31.31999981	-0.88515880
31.35999981	-0.77675710
31.39999981	-0.66835530
31.43999981	-0.56001470
31.47999981	-0.43354590
31.51999981	-0.28901030
31.55999981	-0.16254160
31.59999981	-0.03607288
31.63999981	0.07220680
31.67999981	0.19867550
31.71999981	0.28901030
31.75999981	0.39741200
31.79999981	0.48774680
31.83999981	0.56001470
31.87999981	0.63222150
31.91999981	0.72255620
31.95999981	0.79482410
31.99999981	0.88515880
32.03999981	0.95742670
32.07999981	1.04776100
32.11999980	1.12002900
32.15999980	1.17416900
32.19999980	1.22837000
32.23999980	1.30063800
32.27999980	1.31870500
32.31999980	1.33677200
32.35999980	1.33677200
32.39999980	1.31870500
32.43999980	1.28257100
32.47999980	1.21030300
32.51999980	1.13809600
32.55999980	1.06582800
32.59999980	0.93935970
32.63999980	0.83095790
32.67999980	0.72255620
32.71999980	0.57808160
32.75999980	0.46967990
32.79999980	0.32514420
32.83999980	0.19867550
32.87999980	0.07220680
32.91999980	-0.03607288
32.95999980	-0.12640770
