Time	Channel A
(us)	(V)

0.00000000	-0.39741200
0.04000000	-0.46967990
0.08000000	-0.54194770
0.12000000	-0.61415450
0.16000000	-0.66835530
0.20000000	-0.74062320
0.24000000	-0.81289100
0.28000000	-0.88515880
0.32000000	-0.93935970
0.36000000	-1.01162800
0.40000000	-1.08389500
0.44000000	-1.13809600
0.48000000	-1.19223600
0.52000000	-1.22837000
0.56000000	-1.26450400
0.60000000	-1.26450400
0.64000000	-1.28257100
0.68000000	-1.26450400
0.72000000	-1.22837000
0.76000000	-1.15616300
0.80000000	-1.10196200
0.83999999	-1.01162800
0.87999999	-0.92129280
0.91999999	-0.81289100
0.95999999	-0.68642230
0.99999999	-0.56001470
1.03999999	-0.43354590
1.07999999	-0.28901030
1.11999999	-0.16254160
1.15999999	-0.05413984
1.19999999	0.07220680
1.23999999	0.18060850
1.27999999	0.28901030
1.31999999	0.36127810
1.35999999	0.46967990
1.39999999	0.54194770
1.43999999	0.63222150
1.47999999	0.70448930
1.51999999	0.77675710
1.55999999	0.86709190
1.59999999	0.95742670
1.63999999	1.02969500
1.67999999	1.10196200
1.71999999	1.17416900
1.75999999	1.22837000
1.79999999	1.30063800
1.83999999	1.33677200
1.87999999	1.35483900
1.91999999	1.35483900
1.95999999	1.31870500
1.99999999	1.30063800
2.03999999	1.22837000
2.07999999	1.15616300
2.11999999	1.06582800
2.15999999	0.97549360
2.19999999	0.84902500
2.23999999	0.72255620
2.27999999	0.59608750
2.31999999	0.46967990
2.35999999	0.34321110
2.39999999	0.21674250
2.43999999	0.10834070
2.47999998	-0.01800592
2.51999998	-0.10834070
2.55999998	-0.21674250
2.59999998	-0.28901030
2.63999998	-0.37934510
2.67999998	-0.45161290
2.71999998	-0.52388070
2.75999998	-0.59608750
2.79999998	-0.66835530
2.83999998	-0.72255620
2.87999998	-0.79482410
2.91999998	-0.86709190
2.95999998	-0.93935970
2.99999998	-1.01162800
3.03999998	-1.06582800
3.07999998	-1.12002900
3.11999998	-1.17416900
3.15999998	-1.22837000
3.19999998	-1.26450400
3.23999998	-1.28257100
3.27999998	-1.28257100
3.31999998	-1.26450400
3.35999998	-1.22837000
3.39999998	-1.17416900
3.43999998	-1.12002900
3.47999998	-1.02969500
3.51999998	-0.93935970
3.55999998	-0.83095790
3.59999998	-0.70448930
3.63999998	-0.57808160
3.67999998	-0.45161290
3.71999998	-0.32514420
3.75999998	-0.19867550
3.79999998	-0.07220680
3.83999998	0.03607288
3.87999998	0.14447460
3.91999998	0.27094330
3.95999998	0.36127810
3.99999998	0.45161290
4.03999998	0.54194770
4.07999998	0.61415450
4.11999997	0.68642230
4.15999997	0.77675710
4.19999997	0.84902500
4.23999997	0.93935970
4.27999997	1.01162800
4.31999997	1.08389500
4.35999997	1.15616300
4.39999997	1.22837000
4.43999997	1.28257100
4.47999997	1.31870500
4.51999997	1.33677200
4.55999997	1.35483900
4.59999997	1.33677200
4.63999997	1.30063800
4.67999997	1.24643700
4.71999997	1.15616300
4.75999997	1.08389500
4.79999997	0.99356060
4.83999997	0.88515880
4.87999997	0.75869010
4.91999997	0.61415450
4.95999997	0.50581380
4.99999997	0.36127810
5.03999997	0.23480940
5.07999997	0.12640770
5.11999997	0.01800592
5.15999997	-0.09027375
5.19999997	-0.18060850
5.23999997	-0.28901030
5.27999997	-0.36127810
5.31999997	-0.43354590
5.35999997	-0.50581380
5.39999997	-0.57808160
5.43999997	-0.65028840
5.47999997	-0.72255620
5.51999997	-0.79482410
5.55999997	-0.86709190
5.59999997	-0.92129280
5.63999997	-0.99356060
5.67999997	-1.04776100
5.71999997	-1.12002900
5.75999996	-1.17416900
5.79999996	-1.22837000
5.83999996	-1.24643700
5.87999996	-1.26450400
5.91999996	-1.26450400
5.95999996	-1.24643700
5.99999996	-1.22837000
6.03999996	-1.19223600
6.07999996	-1.13809600
6.11999996	-1.04776100
6.15999996	-0.95742670
6.19999996	-0.84902500
6.23999996	-0.72255620
6.27999996	-0.61415450
6.31999996	-0.48774680
6.35999996	-0.36127810
6.39999996	-0.23480940
6.43999996	-0.10834070
6.47999996	0.00000000
6.51999996	0.12640770
6.55999996	0.23480940
6.59999996	0.34321110
6.63999996	0.43354590
6.67999996	0.50581380
6.71999996	0.57808160
6.75999996	0.66835530
6.79999996	0.75869010
6.83999996	0.84902500
6.87999996	0.92129280
6.91999996	1.01162800
6.95999996	1.08389500
6.99999996	1.15616300
7.03999996	1.21030300
7.07999996	1.28257100
7.11999996	1.31870500
7.15999996	1.33677200
7.19999996	1.35483900
7.23999996	1.35483900
7.27999996	1.30063800
7.31999996	1.26450400
7.35999996	1.19223600
7.39999996	1.10196200
7.43999995	1.01162800
7.47999995	0.90322580
7.51999995	0.77675710
7.55999995	0.65028840
7.59999995	0.52388070
7.63999995	0.39741200
7.67999995	0.27094330
7.71999995	0.14447460
7.75999995	0.03607288
7.79999995	-0.07220680
7.83999995	-0.16254160
7.87999995	-0.27094330
7.91999995	-0.34321110
7.95999995	-0.41547900
7.99999995	-0.50581380
8.03999995	-0.57808160
8.07999995	-0.63222150
8.11999995	-0.70448930
8.15999995	-0.77675710
8.19999995	-0.84902500
8.23999995	-0.90322580
8.27999995	-0.97549360
8.31999995	-1.04776100
8.35999995	-1.10196200
8.39999995	-1.15616300
8.43999995	-1.21030300
8.47999995	-1.24643700
8.51999995	-1.26450400
8.55999995	-1.26450400
8.59999995	-1.26450400
8.63999995	-1.24643700
8.67999995	-1.19223600
8.71999995	-1.13809600
8.75999995	-1.06582800
8.79999995	-0.97549360
8.83999995	-0.86709190
8.87999995	-0.75869010
8.91999995	-0.63222150
8.95999995	-0.50581380
8.99999995	-0.37934510
9.03999995	-0.25287640
9.07999994	-0.12640770
9.11999994	0.00000000
9.15999994	0.10834070
9.19999994	0.21674250
9.23999994	0.32514420
9.27999994	0.41547900
9.31999994	0.48774680
9.35999994	0.57808160
9.39999994	0.65028840
9.43999994	0.72255620
9.47999994	0.81289100
9.51999994	0.90322580
9.55999994	0.97549360
9.59999994	1.04776100
9.63999994	1.12002900
9.67999994	1.19223600
9.71999994	1.24643700
9.75999994	1.30063800
9.79999994	1.33677200
9.83999994	1.33677200
9.87999994	1.33677200
9.91999994	1.31870500
9.95999994	1.26450400
9.99999994	1.21030300
10.03999994	1.13809600
10.07999994	1.02969500
10.11999994	0.92129280
10.15999994	0.79482410
10.19999994	0.68642230
10.23999994	0.56001470
10.27999994	0.43354590
10.31999994	0.28901030
10.35999994	0.18060850
10.39999994	0.05413984
10.43999994	-0.05413984
10.47999994	-0.16254160
10.51999994	-0.25287640
10.55999994	-0.32514420
10.59999994	-0.41547900
10.63999994	-0.48774680
10.67999994	-0.56001470
10.71999993	-0.61415450
10.75999993	-0.68642230
10.79999993	-0.75869010
10.83999993	-0.83095790
10.87999993	-0.88515880
10.91999993	-0.95742670
10.95999993	-1.01162800
10.99999993	-1.08389500
11.03999993	-1.13809600
11.07999993	-1.19223600
11.11999993	-1.22837000
11.15999993	-1.24643700
11.19999993	-1.28257100
11.23999993	-1.26450400
11.27999993	-1.24643700
11.31999993	-1.22837000
11.35999993	-1.15616300
11.39999993	-1.08389500
11.43999993	-1.01162800
11.47999993	-0.90322580
11.51999993	-0.79482410
11.55999993	-0.65028840
11.59999993	-0.54194770
11.63999993	-0.39741200
11.67999993	-0.28901030
11.71999993	-0.14447460
11.75999993	-0.03607288
11.79999993	0.09027375
11.83999993	0.19867550
11.87999993	0.30707720
11.91999993	0.39741200
11.95999993	0.48774680
11.99999993	0.56001470
12.03999993	0.65028840
12.07999993	0.72255620
12.11999993	0.79482410
12.15999993	0.86709190
12.19999993	0.93935970
12.23999993	1.02969500
12.27999993	1.12002900
12.31999993	1.17416900
12.35999992	1.22837000
12.39999992	1.30063800
12.43999992	1.31870500
12.47999992	1.33677200
12.51999992	1.33677200
12.55999992	1.31870500
12.59999992	1.28257100
12.63999992	1.22837000
12.67999992	1.13809600
12.71999992	1.06582800
12.75999992	0.93935970
12.79999992	0.83095790
12.83999992	0.70448930
12.87999992	0.57808160
12.91999992	0.45161290
12.95999992	0.30707720
12.99999992	0.19867550
13.03999992	0.07220680
13.07999992	-0.03607288
13.11999992	-0.14447460
13.15999992	-0.23480940
13.19999992	-0.32514420
13.23999992	-0.39741200
13.27999992	-0.46967990
13.31999992	-0.54194770
13.35999992	-0.61415450
13.39999992	-0.66835530
13.43999992	-0.74062320
13.47999992	-0.81289100
13.51999992	-0.86709190
13.55999992	-0.93935970
13.59999992	-1.01162800
13.63999992	-1.08389500
13.67999992	-1.13809600
13.71999992	-1.17416900
13.75999992	-1.22837000
13.79999992	-1.24643700
13.83999992	-1.26450400
13.87999992	-1.26450400
13.91999992	-1.24643700
13.95999992	-1.22837000
13.99999991	-1.15616300
14.03999991	-1.10196200
14.07999991	-1.01162800
14.11999991	-0.92129280
14.15999991	-0.81289100
14.19999991	-0.68642230
14.23999991	-0.57808160
14.27999991	-0.43354590
14.31999991	-0.30707720
14.35999991	-0.18060850
14.39999991	-0.05413984
14.43999991	0.07220680
14.47999991	0.18060850
14.51999991	0.27094330
14.55999991	0.36127810
14.59999991	0.46967990
14.63999991	0.56001470
14.67999991	0.63222150
14.71999991	0.70448930
14.75999991	0.79482410
14.79999991	0.86709190
14.83999991	0.93935970
14.87999991	1.01162800
14.91999991	1.10196200
14.95999991	1.15616300
14.99999991	1.22837000
15.03999991	1.28257100
15.07999991	1.31870500
15.11999991	1.33677200
15.15999991	1.33677200
15.19999991	1.31870500
15.23999991	1.28257100
15.27999991	1.22837000
15.31999991	1.15616300
15.35999991	1.06582800
15.39999991	0.95742670
15.43999991	0.84902500
15.47999991	0.72255620
15.51999991	0.59608750
15.55999991	0.46967990
15.59999991	0.34321110
15.63999990	0.21674250
15.67999990	0.09027375
15.71999990	-0.01800592
15.75999990	-0.10834070
15.79999990	-0.21674250
15.83999990	-0.30707720
15.87999990	-0.37934510
15.91999990	-0.45161290
15.95999990	-0.52388070
15.99999990	-0.59608750
16.03999990	-0.66835530
16.07999990	-0.72255620
16.11999990	-0.79482410
16.15999990	-0.86709190
16.19999990	-0.93935970
16.23999990	-1.01162800
16.27999990	-1.08389500
16.31999990	-1.12002900
16.35999990	-1.17416900
16.39999990	-1.22837000
16.43999990	-1.24643700
16.47999990	-1.26450400
16.51999990	-1.26450400
16.55999990	-1.24643700
16.59999990	-1.22837000
16.63999990	-1.17416900
16.67999990	-1.10196200
16.71999990	-1.02969500
16.75999990	-0.93935970
16.79999990	-0.83095790
16.83999990	-0.72255620
16.87999990	-0.59608750
16.91999990	-0.45161290
16.95999990	-0.32514420
16.99999990	-0.21674250
17.03999990	-0.07220680
17.07999990	0.03607288
17.11999990	0.14447460
17.15999990	0.25287640
17.19999990	0.34321110
17.23999990	0.43354590
17.27999989	0.52388070
17.31999989	0.61415450
17.35999989	0.68642230
17.39999989	0.77675710
17.43999989	0.84902500
17.47999989	0.93935970
17.51999989	1.01162800
17.55999989	1.08389500
17.59999989	1.15616300
17.63999989	1.22837000
17.67999989	1.28257100
17.71999989	1.31870500
17.75999989	1.33677200
17.79999989	1.33677200
17.83999989	1.33677200
17.87999989	1.30063800
17.91999989	1.24643700
17.95999989	1.17416900
17.99999989	1.08389500
18.03999989	0.99356060
18.07999989	0.86709190
18.11999989	0.74062320
18.15999989	0.63222150
18.19999989	0.50581380
18.23999989	0.36127810
18.27999989	0.25287640
18.31999989	0.12640770
18.35999989	0.00000000
18.39999989	-0.09027375
18.43999989	-0.19867550
18.47999989	-0.28901030
18.51999989	-0.36127810
18.55999989	-0.43354590
18.59999989	-0.50581380
18.63999989	-0.57808160
18.67999989	-0.65028840
18.71999989	-0.72255620
18.75999989	-0.79482410
18.79999989	-0.86709190
18.83999989	-0.92129280
18.87999989	-0.99356060
18.91999989	-1.06582800
18.95999988	-1.12002900
18.99999988	-1.17416900
19.03999988	-1.22837000
19.07999988	-1.24643700
19.11999988	-1.26450400
19.15999988	-1.26450400
19.19999988	-1.26450400
19.23999988	-1.22837000
19.27999988	-1.19223600
19.31999988	-1.12002900
19.35999988	-1.04776100
19.39999988	-0.95742670
19.43999988	-0.86709190
19.47999988	-0.74062320
19.51999988	-0.61415450
19.55999988	-0.48774680
19.59999988	-0.36127810
19.63999988	-0.23480940
19.67999988	-0.10834070
19.71999988	0.01800592
19.75999988	0.12640770
19.79999988	0.23480940
19.83999988	0.34321110
19.87999988	0.43354590
19.91999988	0.52388070
19.95999988	0.59608750
19.99999988	0.66835530
20.03999988	0.74062320
20.07999988	0.83095790
20.11999988	0.92129280
20.15999988	0.99356060
20.19999988	1.06582800
20.23999988	1.13809600
20.27999988	1.19223600
20.31999988	1.26450400
20.35999988	1.30063800
20.39999988	1.31870500
20.43999988	1.33677200
20.47999988	1.31870500
20.51999988	1.30063800
20.55999988	1.26450400
20.59999987	1.19223600
20.63999987	1.10196200
20.67999987	1.01162800
20.71999987	0.90322580
20.75999987	0.79482410
20.79999987	0.65028840
20.83999987	0.54194770
20.87999987	0.41547900
20.91999987	0.27094330
20.95999987	0.14447460
20.99999987	0.03607288
21.03999987	-0.07220680
21.07999987	-0.16254160
21.11999987	-0.27094330
21.15999987	-0.36127810
21.19999987	-0.43354590
21.23999987	-0.50581380
21.27999987	-0.57808160
21.31999987	-0.65028840
21.35999987	-0.72255620
21.39999987	-0.77675710
21.43999987	-0.83095790
21.47999987	-0.90322580
21.51999987	-0.97549360
21.55999987	-1.02969500
21.59999987	-1.10196200
21.63999987	-1.15616300
21.67999987	-1.19223600
21.71999987	-1.22837000
21.75999987	-1.24643700
21.79999987	-1.26450400
21.83999987	-1.26450400
21.87999987	-1.22837000
21.91999987	-1.21030300
21.95999987	-1.15616300
21.99999987	-1.08389500
22.03999987	-0.99356060
22.07999987	-0.88515880
22.11999987	-0.77675710
22.15999987	-0.65028840
22.19999987	-0.52388070
22.23999986	-0.39741200
22.27999986	-0.27094330
22.31999986	-0.14447460
22.35999986	-0.01800592
22.39999986	0.10834070
22.43999986	0.21674250
22.47999986	0.30707720
22.51999986	0.41547900
22.55999986	0.50581380
22.59999986	0.57808160
22.63999986	0.65028840
22.67999986	0.74062320
22.71999986	0.81289100
22.75999986	0.90322580
22.79999986	0.97549360
22.83999986	1.04776100
22.87999986	1.12002900
22.91999986	1.19223600
22.95999986	1.24643700
22.99999986	1.30063800
23.03999986	1.31870500
23.07999986	1.33677200
23.11999986	1.33677200
23.15999986	1.30063800
23.19999986	1.26450400
23.23999986	1.21030300
23.27999986	1.12002900
23.31999986	1.04776100
23.35999986	0.92129280
23.39999986	0.79482410
23.43999986	0.68642230
23.47999986	0.56001470
23.51999986	0.43354590
23.55999986	0.28901030
23.59999986	0.18060850
23.63999986	0.05413984
23.67999986	-0.05413984
23.71999986	-0.14447460
23.75999986	-0.25287640
23.79999986	-0.32514420
23.83999986	-0.41547900
23.87999985	-0.48774680
23.91999985	-0.56001470
23.95999985	-0.63222150
23.99999985	-0.68642230
24.03999985	-0.75869010
24.07999985	-0.83095790
24.11999985	-0.90322580
24.15999985	-0.95742670
24.19999985	-1.02969500
24.23999985	-1.10196200
24.27999985	-1.15616300
24.31999985	-1.19223600
24.35999985	-1.24643700
24.39999985	-1.28257100
24.43999985	-1.28257100
24.47999985	-1.26450400
24.51999985	-1.24643700
24.55999985	-1.21030300
24.59999985	-1.15616300
24.63999985	-1.08389500
24.67999985	-0.99356060
24.71999985	-0.90322580
24.75999985	-0.79482410
24.79999985	-0.65028840
24.83999985	-0.54194770
24.87999985	-0.41547900
24.91999985	-0.28901030
24.95999985	-0.16254160
24.99999985	-0.03607288
25.03999985	0.07220680
25.07999985	0.18060850
25.11999985	0.28901030
25.15999985	0.37934510
25.19999985	0.46967990
25.23999985	0.56001470
25.27999985	0.63222150
25.31999985	0.72255620
25.35999985	0.79482410
25.39999985	0.86709190
25.43999985	0.95742670
25.47999985	1.04776100
25.51999984	1.12002900
25.55999984	1.19223600
25.59999984	1.26450400
25.63999984	1.30063800
25.67999984	1.33677200
25.71999984	1.35483900
25.75999984	1.33677200
25.79999984	1.31870500
25.83999984	1.28257100
25.87999984	1.22837000
25.91999984	1.13809600
25.95999984	1.04776100
25.99999984	0.93935970
26.03999984	0.83095790
26.07999984	0.70448930
26.11999984	0.57808160
26.15999984	0.45161290
26.19999984	0.32514420
26.23999984	0.19867550
26.27999984	0.07220680
26.31999984	-0.01800592
26.35999984	-0.12640770
26.39999984	-0.21674250
26.43999984	-0.30707720
26.47999984	-0.37934510
26.51999984	-0.45161290
26.55999984	-0.54194770
26.59999984	-0.59608750
26.63999984	-0.66835530
26.67999984	-0.74062320
26.71999984	-0.81289100
26.75999984	-0.88515880
26.79999984	-0.95742670
26.83999984	-1.01162800
26.87999984	-1.08389500
26.91999984	-1.15616300
26.95999984	-1.19223600
26.99999984	-1.22837000
27.03999984	-1.26450400
27.07999984	-1.28257100
27.11999984	-1.28257100
27.15999983	-1.26450400
27.19999983	-1.22837000
27.23999983	-1.17416900
27.27999983	-1.10196200
27.31999983	-1.01162800
27.35999983	-0.92129280
27.39999983	-0.79482410
27.43999983	-0.68642230
27.47999983	-0.56001470
27.51999983	-0.43354590
27.55999983	-0.30707720
27.59999983	-0.16254160
27.63999983	-0.05413984
27.67999983	0.05413984
27.71999983	0.16254160
27.75999983	0.28901030
27.79999983	0.36127810
27.83999983	0.46967990
27.87999983	0.54194770
27.91999983	0.61415450
27.95999983	0.70448930
27.99999983	0.77675710
28.03999983	0.86709190
28.07999983	0.93935970
28.11999983	1.02969500
28.15999983	1.10196200
28.19999983	1.17416900
28.23999983	1.24643700
28.27999983	1.30063800
28.31999983	1.33677200
28.35999983	1.35483900
28.39999983	1.35483900
28.43999983	1.33677200
28.47999983	1.30063800
28.51999983	1.22837000
28.55999983	1.15616300
28.59999983	1.08389500
28.63999983	0.97549360
28.67999983	0.84902500
28.71999983	0.72255620
28.75999983	0.59608750
28.79999982	0.48774680
28.83999982	0.34321110
28.87999982	0.21674250
28.91999982	0.09027375
28.95999982	-0.01800592
28.99999982	-0.10834070
29.03999982	-0.21674250
29.07999982	-0.30707720
29.11999982	-0.37934510
29.15999982	-0.45161290
29.19999982	-0.52388070
29.23999982	-0.59608750
29.27999982	-0.66835530
29.31999982	-0.74062320
29.35999982	-0.81289100
29.39999982	-0.86709190
29.43999982	-0.93935970
29.47999982	-1.01162800
29.51999982	-1.08389500
29.55999982	-1.12002900
29.59999982	-1.17416900
29.63999982	-1.22837000
29.67999982	-1.24643700
29.71999982	-1.28257100
29.75999982	-1.28257100
29.79999982	-1.26450400
29.83999982	-1.22837000
29.87999982	-1.19223600
29.91999982	-1.12002900
29.95999982	-1.04776100
29.99999982	-0.93935970
30.03999982	-0.83095790
30.07999982	-0.72255620
30.11999982	-0.59608750
30.15999982	-0.46967990
30.19999982	-0.34321110
30.23999982	-0.21674250
30.27999982	-0.07220680
30.31999982	0.03607288
30.35999982	0.14447460
30.39999982	0.27094330
30.43999982	0.36127810
30.47999981	0.45161290
30.51999981	0.54194770
30.55999981	0.61415450
30.59999981	0.68642230
30.63999981	0.77675710
30.67999981	0.84902500
30.71999981	0.93935970
30.75999981	1.01162800
30.79999981	1.08389500
30.83999981	1.15616300
30.87999981	1.22837000
30.91999981	1.28257100
30.95999981	1.31870500
30.99999981	1.33677200
31.03999981	1.33677200
31.07999981	1.33677200
31.11999981	1.30063800
31.15999981	1.24643700
31.19999981	1.17416900
31.23999981	1.10196200
31.27999981	0.99356060
31.31999981	0.88515880
31.35999981	0.75869010
31.39999981	0.63222150
31.43999981	0.50581380
31.47999981	0.37934510
31.51999981	0.25287640
31.55999981	0.12640770
31.59999981	0.00000000
31.63999981	-0.09027375
31.67999981	-0.18060850
31.71999981	-0.28901030
31.75999981	-0.36127810
31.79999981	-0.43354590
31.83999981	-0.50581380
31.87999981	-0.57808160
31.91999981	-0.65028840
31.95999981	-0.72255620
31.99999981	-0.79482410
32.03999981	-0.86709190
32.07999981	-0.92129280
32.11999980	-0.99356060
32.15999980	-1.04776100
32.19999980	-1.12002900
32.23999980	-1.17416900
32.27999980	-1.21030300
32.31999980	-1.24643700
32.35999980	-1.26450400
32.39999980	-1.28257100
32.43999980	-1.26450400
32.47999980	-1.22837000
32.51999980	-1.19223600
32.55999980	-1.13809600
32.59999980	-1.04776100
32.63999980	-0.95742670
32.67999980	-0.84902500
32.71999980	-0.74062320
32.75999980	-0.61415450
32.79999980	-0.50581380
32.83999980	-0.36127810
32.87999980	-0.23480940
32.91999980	-0.10834070
