Time,Channel A
(us),(mV)

0.00000000,-34.13800000
0.04000000,-43.12265000
0.08000000,-50.31281000
0.12000000,-53.90789000
0.16000000,-59.29746000
0.20000000,-62.89254000
0.24000000,-61.09195000
0.28000000,-57.50298000
0.32000000,-57.50298000
0.36000000,-53.90789000
0.40000000,-50.31281000
0.44000000,-44.92325000
0.48000000,-39.52757000
0.52000000,-37.73308000
0.56000000,-32.34352000
0.60000000,-28.74844000
0.64000000,-25.15336000
0.68000000,-19.76379000
0.72000000,-16.16870000
0.76000000,-7.18405700
0.80000000,-1.79448800
0.83999999,0.00000000
0.87999999,10.77914000
0.91999999,17.96930000
0.95999999,28.74844000
0.99999999,43.12265000
1.03999999,55.70238000
1.07999999,62.89254000
1.11999999,68.28211000
1.15999999,71.87719000
1.19999999,73.67168000
1.23999999,71.87719000
1.27999999,68.28211000
1.31999999,62.89254000
1.35999999,59.29746000
1.39999999,53.90789000
1.43999999,46.71774000
1.47999999,37.73308000
1.51999999,30.54292000
1.55999999,25.15336000
1.59999999,16.16870000
1.63999999,10.77914000
1.67999999,3.58897700
1.71999999,-3.58897700
1.75999999,-12.57363000
1.79999999,-21.55827000
1.83999999,-30.54292000
1.87999999,-37.73308000
1.91999999,-46.71774000
1.95999999,-52.10730000
1.99999999,-57.50298000
2.03999999,-61.09195000
2.07999999,-57.50298000
2.11999999,-48.51222000
2.15999999,-26.95395000
2.19999999,-16.16870000
2.23999999,-28.74844000
2.27999999,-43.12265000
2.31999999,-44.92325000
2.35999999,-50.31281000
2.39999999,-68.28211000
2.43999999,-84.45692000
2.47999998,-82.65633000
2.51999998,-59.29746000
2.55999998,-34.13800000
2.59999998,-16.16870000
2.63999998,-7.18405700
2.67999998,7.18405700
2.71999998,28.74844000
2.75999998,43.12265000
2.79999998,44.92325000
2.83999998,46.71774000
2.87999998,55.70238000
2.91999998,71.87719000
2.95999998,80.86184000
2.99999998,79.06125000
3.03999998,77.26676000
3.07999998,77.26676000
3.11999998,77.26676000
3.15999998,71.87719000
3.19999998,64.68703000
3.23999998,55.70238000
3.27999998,46.71774000
3.31999998,35.93859000
3.35999998,26.95395000
3.39999998,14.37422000
3.43999998,3.58897700
3.47999998,-3.58897700
3.51999998,-7.18405700
3.55999998,-8.98464900
3.59999998,-12.57363000
3.63999998,-16.16870000
3.67999998,-21.55827000
3.71999998,-25.15336000
3.75999998,-30.54292000
3.79999998,-37.73308000
3.83999998,-48.51222000
3.87999998,-55.70238000
3.91999998,-57.50298000
3.95999998,-61.09195000
3.99999998,-61.09195000
4.03999998,-59.29746000
4.07999998,-53.90789000
4.11999997,-48.51222000
4.15999997,-43.12265000
4.19999997,-39.52757000
4.23999997,-37.73308000
4.27999997,-35.93859000
4.31999997,-34.13800000
4.35999997,-32.34352000
4.39999997,-28.74844000
4.43999997,-28.74844000
4.47999997,-16.16870000
4.51999997,-7.18405700
4.55999997,5.38956800
4.59999997,17.96930000
4.63999997,26.95395000
4.67999997,39.52757000
4.71999997,50.31281000
4.75999997,61.09195000
4.79999997,70.07660000
4.83999997,71.87719000
4.87999997,73.67168000
4.91999997,77.26676000
4.95999997,73.67168000
4.99999997,66.48762000
5.03999997,61.09195000
5.07999997,55.70238000
5.11999997,48.51222000
5.15999997,41.32816000
5.19999997,34.13800000
5.23999997,28.74844000
5.27999997,21.55827000
5.31999997,14.37422000
5.35999997,7.18405700
5.39999997,0.00000000
5.43999997,-8.98464900
5.47999997,-17.96930000
5.51999997,-26.95395000
5.55999997,-34.13800000
5.59999997,-39.52757000
5.63999997,-46.71774000
5.67999997,-50.31281000
5.71999997,-53.90789000
5.75999996,-57.50298000
5.79999996,-57.50298000
5.83999996,-57.50298000
5.87999996,-52.10730000
5.91999996,-52.10730000
5.95999996,-55.70238000
5.99999996,-52.10730000
6.03999996,-43.12265000
6.07999996,-37.73308000
6.11999996,-35.93859000
6.15999996,-34.13800000
6.19999996,-26.95395000
6.23999996,-21.55827000
6.27999996,-16.16870000
6.31999996,-10.77914000
6.35999996,-5.38956800
6.39999996,-1.79448800
6.43999996,10.77914000
6.47999996,19.76379000
6.51999996,28.74844000
6.55999996,43.12265000
6.59999996,53.90789000
6.63999996,64.68703000
6.67999996,71.87719000
6.71999996,71.87719000
6.75999996,73.67168000
6.79999996,73.67168000
6.83999996,70.07660000
6.87999996,64.68703000
6.91999996,59.29746000
6.95999996,52.10730000
6.99999996,44.92325000
7.03999996,35.93859000
7.07999996,30.54292000
7.11999996,25.15336000
7.15999996,16.16870000
7.19999996,10.77914000
7.23999996,3.58897700
7.27999996,-3.58897700
7.31999996,-12.57363000
7.35999996,-19.76379000
7.39999996,-28.74844000
7.43999995,-37.73308000
7.47999995,-44.92325000
7.51999995,-52.10730000
7.55999995,-57.50298000
7.59999995,-59.29746000
7.63999995,-61.09195000
7.67999995,-59.29746000
7.71999995,-57.50298000
7.75999995,-55.70238000
7.79999995,-52.10730000
7.83999995,-46.71774000
7.87999995,-43.12265000
7.91999995,-37.73308000
7.95999995,-35.93859000
7.99999995,-32.34352000
8.03999995,-28.74844000
8.07999995,-23.35887000
8.11999995,-17.96930000
8.15999995,-14.37422000
8.19999995,-7.18405700
8.23999995,-3.58897700
8.27999995,7.18405700
8.31999995,14.37422000
8.35999995,25.15336000
8.39999995,35.93859000
8.43999995,48.51222000
8.47999995,59.29746000
8.51999995,66.48762000
8.55999995,71.87719000
8.59999995,73.67168000
8.63999995,73.67168000
8.67999995,71.87719000
8.71999995,68.28211000
8.75999995,62.89254000
8.79999995,57.50298000
8.83999995,50.31281000
8.87999995,43.12265000
8.91999995,34.13800000
8.95999995,26.95395000
8.99999995,21.55827000
9.03999995,14.37422000
9.07999994,7.18405700
9.11999994,0.00000000
9.15999994,-7.18405700
9.19999994,-16.16870000
9.23999994,-25.15336000
9.27999994,-34.13800000
9.31999994,-41.32816000
9.35999994,-44.92325000
9.39999994,-62.89254000
9.43999994,-68.28211000
9.47999994,-57.50298000
9.51999994,-53.90789000
9.55999994,-59.29746000
9.59999994,-61.09195000
9.63999994,-57.50298000
9.67999994,-46.71774000
9.71999994,-43.12265000
9.75999994,-43.12265000
9.79999994,-35.93859000
9.83999994,-32.34352000
9.87999994,-28.74844000
9.91999994,-25.15336000
9.95999994,-19.76379000
9.99999994,-16.16870000
10.03999994,-12.57363000
10.07999994,-5.38956800
10.11999994,1.79448800
10.15999994,10.77914000
10.19999994,19.76379000
10.23999994,28.74844000
10.27999994,43.12265000
10.31999994,55.70238000
10.35999994,62.89254000
10.39999994,70.07660000
10.43999994,73.67168000
10.47999994,73.67168000
10.51999994,71.87719000
10.55999994,68.28211000
10.59999994,64.68703000
10.63999994,59.29746000
10.67999994,53.90789000
10.71999993,46.71774000
10.75999993,37.73308000
10.79999993,30.54292000
10.83999993,23.35887000
10.87999993,14.37422000
10.91999993,7.18405700
10.95999993,3.58897700
10.99999993,-5.38956800
11.03999993,-14.37422000
11.07999993,-23.35887000
11.11999993,-30.54292000
11.15999993,-39.52757000
11.19999993,-48.51222000
11.23999993,-55.70238000
11.27999993,-57.50298000
11.31999993,-59.29746000
11.35999993,-61.09195000
11.39999993,-61.09195000
11.43999993,-59.29746000
11.47999993,-57.50298000
11.51999993,-52.10730000
11.55999993,-46.71774000
11.59999993,-43.12265000
11.63999993,-39.52757000
11.67999993,-34.13800000
11.71999993,-30.54292000
11.75999993,-26.95395000
11.79999993,-21.55827000
11.83999993,-16.16870000
11.87999993,-12.57363000
11.91999993,-7.18405700
11.95999993,-1.79448800
11.99999993,5.38956800
12.03999993,14.37422000
12.07999993,25.15336000
12.11999993,35.93859000
12.15999993,48.51222000
12.19999993,59.29746000
12.23999993,66.48762000
12.27999993,71.87719000
12.31999993,73.67168000
12.35999992,71.87719000
12.39999992,71.87719000
12.43999992,68.28211000
12.47999992,62.89254000
12.51999992,55.70238000
12.55999992,50.31281000
12.59999992,43.12265000
12.63999992,34.13800000
12.67999992,26.95395000
12.71999992,21.55827000
12.75999992,12.57363000
12.79999992,7.18405700
12.83999992,0.00000000
12.87999992,-8.98464900
12.91999992,-17.96930000
12.95999992,-26.95395000
12.99999992,-35.93859000
13.03999992,-43.12265000
13.07999992,-50.31281000
13.11999992,-57.50298000
13.15999992,-59.29746000
13.19999992,-61.09195000
13.23999992,-62.89254000
13.27999992,-61.09195000
13.31999992,-57.50298000
13.35999992,-53.90789000
13.39999992,-50.31281000
13.43999992,-44.92325000
13.47999992,-41.32816000
13.51999992,-37.73308000
13.55999992,-32.34352000
13.59999992,-28.74844000
13.63999992,-25.15336000
13.67999992,-19.76379000
13.71999992,-14.37422000
13.75999992,-10.77914000
13.79999992,-3.58897700
13.83999992,1.79448800
13.87999992,8.98464900
13.91999992,19.76379000
13.95999992,28.74844000
13.99999991,43.12265000
14.03999991,53.90789000
14.07999991,62.89254000
14.11999991,70.07660000
14.15999991,71.87719000
14.19999991,73.67168000
14.23999991,68.28211000
14.27999991,66.48762000
14.31999991,62.89254000
14.35999991,59.29746000
14.39999991,55.70238000
14.43999991,48.51222000
14.47999991,37.73308000
14.51999991,30.54292000
14.55999991,23.35887000
14.59999991,17.96930000
14.63999991,10.77914000
14.67999991,1.79448800
14.71999991,-5.38956800
14.75999991,-14.37422000
14.79999991,-23.35887000
14.83999991,-32.34352000
14.87999991,-39.52757000
14.91999991,-48.51222000
14.95999991,-53.90789000
14.99999991,-57.50298000
15.03999991,-61.09195000
15.07999991,-62.89254000
15.11999991,-61.09195000
15.15999991,-59.29746000
15.19999991,-53.90789000
15.23999991,-52.10730000
15.27999991,-46.71774000
15.31999991,-43.12265000
15.35999991,-39.52757000
15.39999991,-35.93859000
15.43999991,-32.34352000
15.47999991,-26.95395000
15.51999991,-21.55827000
15.55999991,-14.37422000
15.59999991,-7.18405700
15.63999990,-7.18405700
15.67999990,-7.18405700
15.71999990,3.58897700
15.75999990,16.16870000
15.79999990,26.95395000
15.83999990,35.93859000
15.87999990,46.71774000
15.91999990,59.29746000
15.95999990,68.28211000
15.99999990,70.07660000
16.03999990,71.87719000
16.07999990,71.87719000
16.11999990,71.87719000
16.15999990,68.28211000
16.19999990,62.89254000
16.23999990,55.70238000
16.27999990,48.51222000
16.31999990,43.12265000
16.35999990,35.93859000
16.39999990,26.95395000
16.43999990,19.76379000
16.47999990,14.37422000
16.51999990,7.18405700
16.55999990,0.00000000
16.59999990,-8.98464900
16.63999990,-17.96930000
16.67999990,-26.95395000
16.71999990,-35.93859000
16.75999990,-43.12265000
16.79999990,-50.31281000
16.83999990,-57.50298000
16.87999990,-59.29746000
16.91999990,-61.09195000
16.95999990,-61.09195000
16.99999990,-61.09195000
17.03999990,-57.50298000
17.07999990,-53.90789000
17.11999990,-50.31281000
17.15999990,-46.71774000
17.19999990,-41.32816000
17.23999990,-35.93859000
17.27999989,-32.34352000
17.31999989,-28.74844000
17.35999989,-25.15336000
17.39999989,-19.76379000
17.43999989,-14.37422000
17.47999989,-10.77914000
17.51999989,-5.38956800
17.55999989,1.79448800
17.59999989,8.98464900
17.63999989,17.96930000
17.67999989,28.74844000
17.71999989,43.12265000
17.75999989,53.90789000
17.79999989,62.89254000
17.83999989,68.28211000
17.87999989,71.87719000
17.91999989,73.67168000
17.95999989,71.87719000
17.99999989,70.07660000
18.03999989,64.68703000
18.07999989,59.29746000
18.11999989,52.10730000
18.15999989,46.71774000
18.19999989,37.73308000
18.23999989,30.54292000
18.27999989,25.15336000
18.31999989,16.16870000
18.35999989,10.77914000
18.39999989,3.58897700
18.43999989,-5.38956800
18.47999989,-14.37422000
18.51999989,-21.55827000
18.55999989,-30.54292000
18.59999989,-39.52757000
18.63999989,-46.71774000
18.67999989,-53.90789000
18.71999989,-57.50298000
18.75999989,-61.09195000
18.79999989,-62.89254000
18.83999989,-61.09195000
18.87999989,-59.29746000
18.91999989,-55.70238000
18.95999988,-50.31281000
18.99999988,-46.71774000
19.03999988,-41.32816000
19.07999988,-37.73308000
19.11999988,-34.13800000
19.15999988,-28.74844000
19.19999988,-23.35887000
19.23999988,-30.54292000
19.27999988,-25.15336000
19.31999988,-7.18405700
19.35999988,-1.79448800
19.39999988,-1.79448800
19.43999988,0.00000000
19.47999988,10.77914000
19.51999988,26.95395000
19.55999988,35.93859000
19.59999988,46.71774000
19.63999988,59.29746000
19.67999988,73.67168000
19.71999988,93.44157000
19.75999988,111.41090000
19.79999988,100.62560000
19.83999988,79.06125000
19.87999988,68.28211000
19.91999988,55.70238000
19.95999988,32.34352000
19.99999988,3.58897700
20.03999988,-14.37422000
20.07999988,-10.77914000
20.11999988,5.38956800
20.15999988,12.57363000
20.19999988,10.77914000
20.23999988,10.77914000
20.27999988,16.16870000
20.31999988,16.16870000
20.35999988,5.38956800
20.39999988,-14.37422000
20.43999988,-28.74844000
20.47999988,-32.34352000
20.51999988,-35.93859000
20.55999988,-44.92325000
20.59999987,-53.90789000
20.63999987,-57.50298000
20.67999987,-57.50298000
20.71999987,-50.31281000
20.75999987,-50.31281000
20.79999987,-50.31281000
20.83999987,-50.31281000
20.87999987,-48.51222000
20.91999987,-46.71774000
20.95999987,-44.92325000
20.99999987,-46.71774000
21.03999987,-46.71774000
21.07999987,-39.52757000
21.11999987,-28.74844000
21.15999987,-16.16870000
21.19999987,-14.37422000
21.23999987,-1.79448800
21.27999987,10.77914000
21.31999987,21.55827000
21.35999987,34.13800000
21.39999987,39.52757000
21.43999987,48.51222000
21.47999987,57.50298000
21.51999987,62.89254000
21.55999987,68.28211000
21.59999987,70.07660000
21.63999987,70.07660000
21.67999987,70.07660000
21.71999987,70.07660000
21.75999987,64.68703000
21.79999987,55.70238000
21.83999987,48.51222000
21.87999987,39.52757000
21.91999987,30.54292000
21.95999987,21.55827000
21.99999987,14.37422000
22.03999987,8.98464900
22.07999987,5.38956800
22.11999987,1.79448800
22.15999987,-3.58897700
22.19999987,-10.77914000
22.23999986,-16.16870000
22.27999986,-25.15336000
22.31999986,-34.13800000
22.35999986,-43.12265000
22.39999986,-50.31281000
22.43999986,-53.90789000
22.47999986,-57.50298000
22.51999986,-59.29746000
22.55999986,-59.29746000
22.59999986,-57.50298000
22.63999986,-57.50298000
22.67999986,-52.10730000
22.71999986,-48.51222000
22.75999986,-44.92325000
22.79999986,-39.52757000
22.83999986,-35.93859000
22.87999986,-30.54292000
22.91999986,-28.74844000
22.95999986,-23.35887000
22.99999986,-17.96930000
23.03999986,-14.37422000
23.07999986,-7.18405700
23.11999986,-1.79448800
23.15999986,7.18405700
23.19999986,17.96930000
23.23999986,28.74844000
23.27999986,41.32816000
23.31999986,52.10730000
23.35999986,62.89254000
23.39999986,70.07660000
23.43999986,71.87719000
23.47999986,71.87719000
23.51999986,71.87719000
23.55999986,68.28211000
23.59999986,62.89254000
23.63999986,57.50298000
23.67999986,52.10730000
23.71999986,46.71774000
23.75999986,39.52757000
23.79999986,32.34352000
23.83999986,25.15336000
23.87999985,19.76379000
23.91999985,12.57363000
23.95999985,5.38956800
23.99999985,-1.79448800
24.03999985,-8.98464900
24.07999985,-19.76379000
24.11999985,-30.54292000
24.15999985,-35.93859000
24.19999985,-43.12265000
24.23999985,-46.71774000
24.27999985,-52.10730000
24.31999985,-57.50298000
24.35999985,-61.09195000
24.39999985,-61.09195000
24.43999985,-57.50298000
24.47999985,-55.70238000
24.51999985,-52.10730000
24.55999985,-50.31281000
24.59999985,-44.92325000
24.63999985,-41.32816000
24.67999985,-37.73308000
24.71999985,-34.13800000
24.75999985,-28.74844000
24.79999985,-25.15336000
24.83999985,-19.76379000
24.87999985,-14.37422000
24.91999985,-8.98464900
24.95999985,-3.58897700
24.99999985,1.79448800
25.03999985,10.77914000
25.07999985,21.55827000
25.11999985,30.54292000
25.15999985,44.92325000
25.19999985,55.70238000
25.23999985,64.68703000
25.27999985,75.47227000
25.31999985,71.87719000
25.35999985,70.07660000
25.39999985,70.07660000
25.43999985,70.07660000
25.47999985,64.68703000
25.51999984,57.50298000
25.55999984,50.31281000
25.59999984,44.92325000
25.63999984,37.73308000
25.67999984,32.34352000
25.71999984,21.55827000
25.75999984,16.16870000
25.79999984,10.77914000
25.83999984,3.58897700
25.87999984,-3.58897700
25.91999984,-14.37422000
25.95999984,-21.55827000
25.99999984,-30.54292000
26.03999984,-37.73308000
26.07999984,-46.71774000
26.11999984,-53.90789000
26.15999984,-57.50298000
26.19999984,-59.29746000
26.23999984,-61.09195000
26.27999984,-59.29746000
26.31999984,-57.50298000
26.35999984,-55.70238000
26.39999984,-50.31281000
26.43999984,-46.71774000
26.47999984,-43.12265000
26.51999984,-39.52757000
26.55999984,-35.93859000
26.59999984,-30.54292000
26.63999984,-26.95395000
26.67999984,-21.55827000
26.71999984,-17.96930000
26.75999984,-12.57363000
26.79999984,-7.18405700
26.83999984,-1.79448800
26.87999984,5.38956800
26.91999984,14.37422000
26.95999984,26.95395000
26.99999984,35.93859000
27.03999984,48.51222000
27.07999984,59.29746000
27.11999984,64.68703000
27.15999983,71.87719000
27.19999983,71.87719000
27.23999983,71.87719000
27.27999983,71.87719000
27.31999983,66.48762000
27.35999983,62.89254000
27.39999983,55.70238000
27.43999983,50.31281000
27.47999983,41.32816000
27.51999983,34.13800000
27.55999983,26.95395000
27.59999983,19.76379000
27.63999983,14.37422000
27.67999983,5.38956800
27.71999983,0.00000000
27.75999983,-8.98464900
27.79999983,-17.96930000
27.83999983,-26.95395000
27.87999983,-35.93859000
27.91999983,-43.12265000
27.95999983,-50.31281000
27.99999983,-55.70238000
28.03999983,-59.29746000
28.07999983,-61.09195000
28.11999983,-61.09195000
28.15999983,-59.29746000
28.19999983,-57.50298000
28.23999983,-52.10730000
28.27999983,-50.31281000
28.31999983,-44.92325000
28.35999983,-41.32816000
28.39999983,-35.93859000
28.43999983,-32.34352000
28.47999983,-28.74844000
28.51999983,-23.35887000
28.55999983,-19.76379000
28.59999983,-14.37422000
28.63999983,-10.77914000
28.67999983,-5.38956800
28.71999983,0.00000000
28.75999983,8.98464900
28.79999982,19.76379000
28.83999982,30.54292000
28.87999982,43.12265000
28.91999982,53.90789000
28.95999982,62.89254000
28.99999982,71.87719000
29.03999982,77.26676000
29.07999982,71.87719000
29.11999982,61.09195000
29.15999982,70.07660000
29.19999982,73.67168000
29.23999982,64.68703000
29.27999982,50.31281000
29.31999982,43.12265000
29.35999982,37.73308000
29.39999982,34.13800000
29.43999982,23.35887000
29.47999982,16.16870000
29.51999982,10.77914000
29.55999982,3.58897700
29.59999982,-5.38956800
29.63999982,-12.57363000
29.67999982,-21.55827000
29.71999982,-32.34352000
29.75999982,-41.32816000
29.79999982,-46.71774000
29.83999982,-52.10730000
29.87999982,-59.29746000
29.91999982,-61.09195000
29.95999982,-61.09195000
29.99999982,-61.09195000
30.03999982,-59.29746000
30.07999982,-55.70238000
30.11999982,-50.31281000
30.15999982,-46.71774000
30.19999982,-43.12265000
30.23999982,-39.52757000
30.27999982,-34.13800000
30.31999982,-30.54292000
30.35999982,-25.15336000
30.39999982,-21.55827000
30.43999982,-16.16870000
30.47999981,-8.98464900
30.51999981,-8.98464900
30.55999981,0.00000000
30.59999981,5.38956800
30.63999981,14.37422000
30.67999981,23.35887000
30.71999981,37.73308000
30.75999981,50.31281000
30.79999981,59.29746000
30.83999981,64.68703000
30.87999981,71.87719000
30.91999981,75.47227000
30.95999981,73.67168000
30.99999981,71.87719000
31.03999981,66.48762000
31.07999981,62.89254000
31.11999981,57.50298000
31.15999981,50.31281000
31.19999981,41.32816000
31.23999981,35.93859000
31.27999981,28.74844000
31.31999981,21.55827000
31.35999981,14.37422000
31.39999981,5.38956800
31.43999981,0.00000000
31.47999981,-8.98464900
31.51999981,-17.96930000
31.55999981,-26.95395000
31.59999981,-35.93859000
31.63999981,-43.12265000
31.67999981,-50.31281000
31.71999981,-57.50298000
31.75999981,-61.09195000
