Time	Channel A
(us)	(mV)

0.00000000	-48.51222000
0.04000000	-50.31281000
0.08000000	-48.51222000
0.12000000	-43.12265000
0.16000000	-34.13800000
0.20000000	-25.15336000
0.24000000	-21.55827000
0.28000000	-17.96930000
0.32000000	-14.37422000
0.36000000	-14.37422000
0.40000000	-14.37422000
0.44000000	-12.57363000
0.48000000	-8.98464900
0.52000000	-3.58897700
0.56000000	1.79448800
0.60000000	12.57363000
0.64000000	21.55827000
0.68000000	35.93859000
0.72000000	48.51222000
0.76000000	62.89254000
0.80000000	75.47227000
0.83999999	84.45692000
0.87999999	95.23605000
0.91999999	93.44157000
0.95999999	84.45692000
0.99999999	66.48762000
1.03999999	62.89254000
1.07999999	59.29746000
1.11999999	55.70238000
1.15999999	50.31281000
1.19999999	50.31281000
1.23999999	48.51222000
1.27999999	48.51222000
1.31999999	48.51222000
1.35999999	50.31281000
1.39999999	50.31281000
1.43999999	48.51222000
1.47999999	43.12265000
1.51999999	34.13800000
1.55999999	19.76379000
1.59999999	1.79448800
1.63999999	-16.16870000
1.67999999	-39.52757000
1.71999999	-62.89254000
1.75999999	-80.86184000
1.79999999	-91.64098000
1.83999999	-93.44157000
1.87999999	-86.25141000
1.91999999	-66.48762000
1.95999999	-28.74844000
1.99999999	-3.58897700
2.03999999	14.37422000
2.07999999	14.37422000
2.11999999	1.79448800
2.15999999	-14.37422000
2.19999999	-28.74844000
2.23999999	-41.32816000
2.27999999	-50.31281000
2.31999999	-57.50298000
2.35999999	-62.89254000
2.39999999	-62.89254000
2.43999999	-61.09195000
2.47999998	-61.09195000
2.51999998	-57.50298000
2.55999998	-50.31281000
2.59999998	-37.73308000
2.63999998	-28.74844000
2.67999998	-23.35887000
2.71999998	-19.76379000
2.75999998	-16.16870000
2.79999998	-14.37422000
2.83999998	-14.37422000
2.87999998	-8.98464900
2.91999998	-3.58897700
2.95999998	5.38956800
2.99999998	16.16870000
3.03999998	26.95395000
3.07999998	39.52757000
3.11999998	48.51222000
3.15999998	57.50298000
3.19999998	64.68703000
3.23999998	70.07660000
3.27999998	75.47227000
3.31999998	79.06125000
3.35999998	79.06125000
3.39999998	68.28211000
3.43999998	61.09195000
3.47999998	59.29746000
3.51999998	57.50298000
3.55999998	57.50298000
3.59999998	53.90789000
3.63999998	50.31281000
3.67999998	52.10730000
3.71999998	52.10730000
3.75999998	50.31281000
3.79999998	50.31281000
3.83999998	50.31281000
3.87999998	53.90789000
3.91999998	50.31281000
3.95999998	43.12265000
3.99999998	26.95395000
4.03999998	10.77914000
4.07999998	-7.18405700
4.11999997	-25.15336000
4.15999997	-43.12265000
4.19999997	-57.50298000
4.23999997	-71.87719000
4.27999997	-82.65633000
4.31999997	-93.44157000
4.35999997	-89.84650000
4.39999997	-70.07660000
4.43999997	-48.51222000
4.47999997	-34.13800000
4.51999997	-28.74844000
4.55999997	-25.15336000
4.59999997	-25.15336000
4.63999997	-26.95395000
4.67999997	-30.54292000
4.71999997	-32.34352000
4.75999997	-35.93859000
4.79999997	-39.52757000
4.83999997	-43.12265000
4.87999997	-44.92325000
4.91999997	-46.71774000
4.95999997	-44.92325000
4.99999997	-37.73308000
5.03999997	-26.95395000
5.07999997	-19.76379000
5.11999997	-16.16870000
5.15999997	-14.37422000
5.19999997	-14.37422000
5.23999997	-14.37422000
5.27999997	-17.96930000
5.31999997	-14.37422000
5.35999997	-10.77914000
5.39999997	-1.79448800
5.43999997	5.38956800
5.47999997	17.96930000
5.51999997	30.54292000
5.55999997	43.12265000
5.59999997	57.50298000
5.63999997	70.07660000
5.67999997	80.86184000
5.71999997	89.84650000
5.75999996	97.03055000
5.79999996	88.04590000
5.83999996	75.47227000
5.87999996	64.68703000
5.91999996	62.89254000
5.95999996	59.29746000
5.99999996	53.90789000
6.03999996	50.31281000
6.07999996	48.51222000
6.11999996	46.71774000
6.15999996	46.71774000
6.19999996	46.71774000
6.23999996	48.51222000
6.27999996	46.71774000
6.31999996	46.71774000
6.35999996	41.32816000
6.39999996	32.34352000
6.43999996	16.16870000
6.47999996	1.79448800
6.51999996	-12.57363000
6.55999996	-26.95395000
6.59999996	-43.12265000
6.63999996	-55.70238000
6.67999996	-68.28211000
6.71999996	-79.06125000
6.75999996	-91.64098000
6.79999996	-82.65633000
6.83999996	-68.28211000
6.87999996	-52.10730000
6.91999996	-52.10730000
6.95999996	-30.54292000
6.99999996	-21.55827000
7.03999996	-25.15336000
7.07999996	-34.13800000
7.11999996	-37.73308000
7.15999996	-34.13800000
7.19999996	-35.93859000
7.23999996	-43.12265000
7.27999996	-46.71774000
7.31999996	-48.51222000
7.35999996	-50.31281000
7.39999996	-48.51222000
7.43999995	-39.52757000
7.47999995	-30.54292000
7.51999995	-25.15336000
7.55999995	-17.96930000
7.59999995	-12.57363000
7.63999995	-10.77914000
7.67999995	-12.57363000
7.71999995	-12.57363000
7.75999995	-7.18405700
7.79999995	-5.38956800
7.83999995	0.00000000
7.87999995	7.18405700
7.91999995	16.16870000
7.95999995	26.95395000
7.99999995	37.73308000
8.03999995	50.31281000
8.07999995	62.89254000
8.11999995	71.87719000
8.15999995	82.65633000
8.19999995	91.64098000
8.23999995	88.04590000
8.27999995	79.06125000
8.31999995	64.68703000
8.35999995	59.29746000
8.39999995	59.29746000
8.43999995	55.70238000
8.47999995	50.31281000
8.51999995	50.31281000
8.55999995	48.51222000
8.59999995	46.71774000
8.63999995	46.71774000
8.67999995	48.51222000
8.71999995	46.71774000
8.75999995	43.12265000
8.79999995	35.93859000
8.83999995	25.15336000
8.87999995	10.77914000
8.91999995	-5.38956800
8.95999995	-17.96930000
8.99999995	-34.13800000
9.03999995	-48.51222000
9.07999994	-61.09195000
9.11999994	-71.87719000
9.15999994	-82.65633000
9.19999994	-91.64098000
9.23999994	-82.65633000
9.27999994	-59.29746000
9.31999994	-37.73308000
9.35999994	-26.95395000
9.39999994	-23.35887000
9.43999994	-21.55827000
9.47999994	-21.55827000
9.51999994	-34.13800000
9.55999994	-39.52757000
9.59999994	-44.92325000
9.63999994	-44.92325000
9.67999994	-53.90789000
9.71999994	-55.70238000
9.75999994	-57.50298000
9.79999994	-57.50298000
9.83999994	-52.10730000
9.87999994	-43.12265000
9.91999994	-30.54292000
9.95999994	-23.35887000
9.99999994	-16.16870000
10.03999994	-12.57363000
10.07999994	-10.77914000
10.11999994	-10.77914000
10.15999994	-10.77914000
10.19999994	-8.98464900
10.23999994	-3.58897700
10.27999994	0.00000000
10.31999994	7.18405700
10.35999994	16.16870000
10.39999994	26.95395000
10.43999994	39.52757000
10.47999994	50.31281000
10.51999994	62.89254000
10.55999994	73.67168000
10.59999994	80.86184000
10.63999994	89.84650000
10.67999994	91.64098000
10.71999993	79.06125000
10.75999993	68.28211000
10.79999993	61.09195000
10.83999993	57.50298000
10.87999993	53.90789000
10.91999993	50.31281000
10.95999993	48.51222000
10.99999993	48.51222000
11.03999993	48.51222000
11.07999993	46.71774000
11.11999993	46.71774000
11.15999993	48.51222000
11.19999993	44.92325000
11.23999993	39.52757000
11.27999993	28.74844000
11.31999993	17.96930000
11.35999993	0.00000000
11.39999993	-14.37422000
11.43999993	-28.74844000
11.47999993	-41.32816000
11.51999993	-55.70238000
11.55999993	-68.28211000
11.59999993	-79.06125000
11.63999993	-80.86184000
11.67999993	-75.47227000
11.71999993	-64.68703000
11.75999993	-57.50298000
11.79999993	-46.71774000
11.83999993	-41.32816000
11.87999993	-35.93859000
11.91999993	-34.13800000
11.95999993	-35.93859000
11.99999993	-39.52757000
12.03999993	-41.32816000
12.07999993	-43.12265000
12.11999993	-44.92325000
12.15999993	-48.51222000
12.19999993	-52.10730000
12.23999993	-50.31281000
12.27999993	-46.71774000
12.31999993	-41.32816000
12.35999992	-34.13800000
12.39999992	-28.74844000
12.43999992	-23.35887000
12.47999992	-21.55827000
12.51999992	-17.96930000
12.55999992	-16.16870000
12.59999992	-14.37422000
12.63999992	-12.57363000
12.67999992	-7.18405700
12.71999992	-1.79448800
12.75999992	5.38956800
12.79999992	14.37422000
12.83999992	25.15336000
12.87999992	35.93859000
12.91999992	46.71774000
12.95999992	55.70238000
12.99999992	66.48762000
13.03999992	75.47227000
13.07999992	82.65633000
13.11999992	91.64098000
13.15999992	82.65633000
13.19999992	75.47227000
13.23999992	61.09195000
13.27999992	57.50298000
13.31999992	57.50298000
13.35999992	53.90789000
13.39999992	50.31281000
13.43999992	50.31281000
13.47999992	52.10730000
13.51999992	50.31281000
13.55999992	44.92325000
13.59999992	41.32816000
13.63999992	43.12265000
13.67999992	41.32816000
13.71999992	32.34352000
13.75999992	21.55827000
13.79999992	7.18405700
13.83999992	-7.18405700
13.87999992	-21.55827000
13.91999992	-35.93859000
13.95999992	-48.51222000
13.99999991	-59.29746000
14.03999991	-70.07660000
14.07999991	-79.06125000
14.11999991	-80.86184000
14.15999991	-80.86184000
14.19999991	-82.65633000
14.23999991	-52.10730000
14.27999991	-35.93859000
14.31999991	-21.55827000
14.35999991	-21.55827000
14.39999991	-21.55827000
14.43999991	-25.15336000
14.47999991	-28.74844000
14.51999991	-34.13800000
14.55999991	-37.73308000
14.59999991	-39.52757000
14.63999991	-43.12265000
14.67999991	-50.31281000
14.71999991	-50.31281000
14.75999991	-48.51222000
14.79999991	-43.12265000
14.83999991	-35.93859000
14.87999991	-28.74844000
14.91999991	-19.76379000
14.95999991	-16.16870000
14.99999991	-14.37422000
15.03999991	-12.57363000
15.07999991	-12.57363000
15.11999991	-10.77914000
15.15999991	-7.18405700
15.19999991	-1.79448800
15.23999991	5.38956800
15.27999991	14.37422000
15.31999991	25.15336000
15.35999991	37.73308000
15.39999991	52.10730000
15.43999991	68.28211000
15.47999991	84.45692000
15.51999991	98.83114000
15.55999991	100.62560000
15.59999991	89.84650000
15.63999990	71.87719000
15.67999990	64.68703000
15.71999990	62.89254000
15.75999990	57.50298000
15.79999990	53.90789000
15.83999990	48.51222000
15.87999990	46.71774000
15.91999990	44.92325000
15.95999990	44.92325000
15.99999990	46.71774000
16.03999990	48.51222000
16.07999990	48.51222000
16.11999990	46.71774000
16.15999990	39.52757000
16.19999990	26.95395000
16.23999990	8.98464900
16.27999990	-7.18405700
16.31999990	-23.35887000
16.35999990	-37.73308000
16.39999990	-52.10730000
16.43999990	-64.68703000
16.47999990	-75.47227000
16.51999990	-84.45692000
16.55999990	-98.83114000
16.59999990	-71.87719000
16.63999990	-52.10730000
16.67999990	-25.15336000
16.71999990	-23.35887000
16.75999990	-30.54292000
16.79999990	-28.74844000
16.83999990	-17.96930000
16.87999990	-25.15336000
16.91999990	-35.93859000
16.95999990	-39.52757000
16.99999990	-41.32816000
17.03999990	-43.12265000
17.07999990	-50.31281000
17.11999990	-53.90789000
17.15999990	-53.90789000
17.19999990	-44.92325000
17.23999990	-35.93859000
17.27999989	-25.15336000
17.31999989	-17.96930000
17.35999989	-14.37422000
17.39999989	-10.77914000
17.43999989	-12.57363000
17.47999989	-12.57363000
17.51999989	-14.37422000
17.55999989	-8.98464900
17.59999989	-5.38956800
17.63999989	0.00000000
17.67999989	7.18405700
17.71999989	17.96930000
17.75999989	30.54292000
17.79999989	44.92325000
17.83999989	57.50298000
17.87999989	70.07660000
17.91999989	80.86184000
17.95999989	89.84650000
17.99999989	98.83114000
18.03999989	86.25141000
18.07999989	73.67168000
18.11999989	64.68703000
18.15999989	61.09195000
18.19999989	55.70238000
18.23999989	52.10730000
18.27999989	46.71774000
18.31999989	46.71774000
18.35999989	50.31281000
18.39999989	48.51222000
18.43999989	46.71774000
18.47999989	50.31281000
18.51999989	48.51222000
18.55999989	41.32816000
18.59999989	32.34352000
18.63999989	21.55827000
18.67999989	5.38956800
18.71999989	-12.57363000
18.75999989	-28.74844000
18.79999989	-41.32816000
18.83999989	-55.70238000
18.87999989	-68.28211000
18.91999989	-79.06125000
18.95999988	-86.25141000
18.99999988	-88.04590000
19.03999988	-82.65633000
19.07999988	-64.68703000
19.11999988	-41.32816000
19.15999988	-28.74844000
19.19999988	-26.95395000
19.23999988	-25.15336000
19.27999988	-28.74844000
19.31999988	-34.13800000
19.35999988	-35.93859000
19.39999988	-35.93859000
19.43999988	-39.52757000
19.47999988	-43.12265000
19.51999988	-46.71774000
19.55999988	-50.31281000
19.59999988	-48.51222000
19.63999988	-44.92325000
19.67999988	-37.73308000
19.71999988	-30.54292000
19.75999988	-25.15336000
19.79999988	-21.55827000
19.83999988	-17.96930000
19.87999988	-16.16870000
19.91999988	-14.37422000
19.95999988	-10.77914000
19.99999988	-5.38956800
20.03999988	0.00000000
20.07999988	8.98464900
20.11999988	17.96930000
20.15999988	28.74844000
20.19999988	39.52757000
20.23999988	50.31281000
20.27999988	62.89254000
20.31999988	75.47227000
20.35999988	79.06125000
20.39999988	86.25141000
20.43999988	91.64098000
20.47999988	79.06125000
20.51999988	66.48762000
20.55999988	59.29746000
20.59999987	59.29746000
20.63999987	55.70238000
20.67999987	52.10730000
20.71999987	52.10730000
20.75999987	50.31281000
20.79999987	48.51222000
20.83999987	48.51222000
20.87999987	48.51222000
20.91999987	46.71774000
20.95999987	43.12265000
20.99999987	37.73308000
21.03999987	28.74844000
21.07999987	17.96930000
21.11999987	1.79448800
21.15999987	-14.37422000
21.19999987	-26.95395000
21.23999987	-41.32816000
21.27999987	-53.90789000
21.31999987	-64.68703000
21.35999987	-75.47227000
21.39999987	-80.86184000
21.43999987	-80.86184000
21.47999987	-71.87719000
21.51999987	-55.70238000
21.55999987	-43.12265000
21.59999987	-43.12265000
21.63999987	-37.73308000
21.67999987	-37.73308000
21.71999987	-34.13800000
21.75999987	-35.93859000
21.79999987	-37.73308000
21.83999987	-43.12265000
21.87999987	-44.92325000
21.91999987	-48.51222000
21.95999987	-48.51222000
21.99999987	-52.10730000
22.03999987	-50.31281000
22.07999987	-46.71774000
22.11999987	-37.73308000
22.15999987	-32.34352000
22.19999987	-26.95395000
22.23999986	-21.55827000
22.27999986	-19.76379000
22.31999986	-14.37422000
22.35999986	-14.37422000
22.39999986	-12.57363000
22.43999986	-8.98464900
22.47999986	-1.79448800
22.51999986	3.58897700
22.55999986	14.37422000
22.59999986	23.35887000
22.63999986	34.13800000
22.67999986	44.92325000
22.71999986	55.70238000
22.75999986	66.48762000
22.79999986	75.47227000
22.83999986	84.45692000
22.87999986	91.64098000
22.91999986	86.25141000
22.95999986	75.47227000
22.99999986	64.68703000
23.03999986	59.29746000
23.07999986	57.50298000
23.11999986	55.70238000
23.15999986	50.31281000
23.19999986	50.31281000
23.23999986	52.10730000
23.27999986	52.10730000
23.31999986	48.51222000
23.35999986	44.92325000
23.39999986	43.12265000
23.43999986	41.32816000
23.47999986	35.93859000
23.51999986	23.35887000
23.55999986	7.18405700
23.59999986	-8.98464900
23.63999986	-21.55827000
23.67999986	-34.13800000
23.71999986	-50.31281000
23.75999986	-61.09195000
23.79999986	-71.87719000
23.83999986	-79.06125000
23.87999985	-84.45692000
23.91999985	-88.04590000
23.95999985	-66.48762000
23.99999985	-50.31281000
24.03999985	-34.13800000
24.07999985	-30.54292000
24.11999985	-28.74844000
24.15999985	-28.74844000
24.19999985	-30.54292000
24.23999985	-35.93859000
24.27999985	-37.73308000
24.31999985	-39.52757000
24.35999985	-43.12265000
24.39999985	-50.31281000
24.43999985	-52.10730000
24.47999985	-53.90789000
24.51999985	-50.31281000
24.55999985	-46.71774000
24.59999985	-35.93859000
24.63999985	-28.74844000
24.67999985	-23.35887000
24.71999985	-21.55827000
24.75999985	-17.96930000
24.79999985	-16.16870000
24.83999985	-14.37422000
24.87999985	-14.37422000
24.91999985	-7.18405700
24.95999985	-3.58897700
24.99999985	5.38956800
25.03999985	12.57363000
25.07999985	26.95395000
25.11999985	46.71774000
25.15999985	73.67168000
25.19999985	98.83114000
25.23999985	104.22070000
25.27999985	93.44157000
25.31999985	97.03055000
25.35999985	86.25141000
25.39999985	57.50298000
25.43999985	21.55827000
25.47999985	7.18405700
25.51999984	14.37422000
25.55999984	32.34352000
25.59999984	44.92325000
25.63999984	46.71774000
25.67999984	53.90789000
25.71999984	64.68703000
25.75999984	71.87719000
25.79999984	71.87719000
25.83999984	59.29746000
25.87999984	52.10730000
25.91999984	50.31281000
25.95999984	44.92325000
25.99999984	26.95395000
26.03999984	5.38956800
26.07999984	-10.77914000
26.11999984	-23.35887000
26.15999984	-35.93859000
26.19999984	-52.10730000
26.23999984	-66.48762000
26.27999984	-79.06125000
26.31999984	-93.44157000
26.35999984	-82.65633000
26.39999984	-73.67168000
26.43999984	-55.70238000
26.47999984	-50.31281000
26.51999984	-35.93859000
26.55999984	-30.54292000
26.59999984	-39.52757000
26.63999984	-34.13800000
26.67999984	-21.55827000
26.71999984	-19.76379000
26.75999984	-26.95395000
26.79999984	-34.13800000
26.83999984	-37.73308000
26.87999984	-43.12265000
26.91999984	-50.31281000
26.95999984	-50.31281000
26.99999984	-43.12265000
27.03999984	-34.13800000
27.07999984	-28.74844000
27.11999984	-19.76379000
27.15999983	-14.37422000
27.19999983	-14.37422000
27.23999983	-17.96930000
27.27999983	-17.96930000
27.31999983	-16.16870000
27.35999983	-16.16870000
27.39999983	-14.37422000
27.43999983	-8.98464900
27.47999983	1.79448800
27.51999983	17.96930000
27.55999983	34.13800000
27.59999983	52.10730000
27.63999983	68.28211000
27.67999983	80.86184000
27.71999983	91.64098000
27.75999983	104.22070000
27.79999983	98.83114000
27.83999983	86.25141000
27.87999983	71.87719000
27.91999983	64.68703000
27.95999983	59.29746000
27.99999983	57.50298000
28.03999983	50.31281000
28.07999983	48.51222000
28.11999983	48.51222000
28.15999983	46.71774000
28.19999983	48.51222000
28.23999983	50.31281000
28.27999983	50.31281000
28.31999983	48.51222000
28.35999983	43.12265000
28.39999983	34.13800000
28.43999983	17.96930000
28.47999983	0.00000000
28.51999983	-12.57363000
28.55999983	-28.74844000
28.59999983	-43.12265000
28.63999983	-53.90789000
28.67999983	-64.68703000
28.71999983	-75.47227000
28.75999983	-82.65633000
28.79999982	-82.65633000
28.83999982	-68.28211000
28.87999982	-57.50298000
28.91999982	-43.12265000
28.95999982	-37.73308000
28.99999982	-35.93859000
29.03999982	-37.73308000
29.07999982	-35.93859000
29.11999982	-37.73308000
29.15999982	-37.73308000
29.19999982	-41.32816000
29.23999982	-43.12265000
29.27999982	-48.51222000
29.31999982	-50.31281000
29.35999982	-52.10730000
29.39999982	-50.31281000
29.43999982	-43.12265000
29.47999982	-35.93859000
29.51999982	-28.74844000
29.55999982	-23.35887000
29.59999982	-19.76379000
29.63999982	-14.37422000
29.67999982	-12.57363000
29.71999982	-10.77914000
29.75999982	-7.18405700
29.79999982	-1.79448800
29.83999982	0.00000000
29.87999982	7.18405700
29.91999982	14.37422000
29.95999982	21.55827000
29.99999982	32.34352000
30.03999982	43.12265000
30.07999982	53.90789000
30.11999982	61.09195000
30.15999982	70.07660000
30.19999982	77.26676000
30.23999982	86.25141000
30.27999982	86.25141000
30.31999982	79.06125000
30.35999982	64.68703000
30.39999982	61.09195000
30.43999982	59.29746000
30.47999981	53.90789000
30.51999981	52.10730000
30.55999981	50.31281000
30.59999981	50.31281000
30.63999981	48.51222000
30.67999981	46.71774000
30.71999981	46.71774000
30.75999981	43.12265000
30.79999981	35.93859000
30.83999981	28.74844000
30.87999981	17.96930000
30.91999981	3.58897700
30.95999981	-10.77914000
30.99999981	-26.95395000
31.03999981	-39.52757000
31.07999981	-53.90789000
31.11999981	-64.68703000
31.15999981	-73.67168000
31.19999981	-80.86184000
31.23999981	-84.45692000
31.27999981	-80.86184000
31.31999981	-64.68703000
31.35999981	-43.12265000
31.39999981	-32.34352000
31.43999981	-34.13800000
31.47999981	-32.34352000
31.51999981	-32.34352000
31.55999981	-32.34352000
31.59999981	-35.93859000
31.63999981	-37.73308000
31.67999981	-43.12265000
