Time	Channel A
(us)	(mV)

0.00000000	28.74844000
0.04000000	34.13800000
0.08000000	41.32816000
0.12000000	46.71774000
0.16000000	55.70238000
0.20000000	62.89254000
0.24000000	71.87719000
0.28000000	73.67168000
0.32000000	71.87719000
0.36000000	66.48762000
0.40000000	61.09195000
0.44000000	55.70238000
0.48000000	50.31281000
0.52000000	43.12265000
0.56000000	35.93859000
0.60000000	30.54292000
0.64000000	25.15336000
0.68000000	17.96930000
0.72000000	14.37422000
0.76000000	10.77914000
0.80000000	7.18405700
0.83999999	1.79448800
0.87999999	-1.79448800
0.91999999	-10.77914000
0.95999999	-17.96930000
0.99999999	-26.95395000
1.03999999	-37.73308000
1.07999999	-44.92325000
1.11999999	-52.10730000
1.15999999	-57.50298000
1.19999999	-61.09195000
1.23999999	-52.10730000
1.27999999	-46.71774000
1.31999999	-34.13800000
1.35999999	-32.34352000
1.39999999	-28.74844000
1.43999999	-26.95395000
1.47999999	-23.35887000
1.51999999	-25.15336000
1.55999999	-26.95395000
1.59999999	-28.74844000
1.63999999	-30.54292000
1.67999999	-34.13800000
1.71999999	-35.93859000
1.75999999	-35.93859000
1.79999999	-34.13800000
1.83999999	-32.34352000
1.87999999	-25.15336000
1.91999999	-19.76379000
1.95999999	-14.37422000
1.99999999	-8.98464900
2.03999999	-5.38956800
2.07999999	-1.79448800
2.11999999	0.00000000
2.15999999	3.58897700
2.19999999	7.18405700
2.23999999	12.57363000
2.27999999	16.16870000
2.31999999	21.55827000
2.35999999	26.95395000
2.39999999	32.34352000
2.43999999	41.32816000
2.47999998	50.31281000
2.51999998	57.50298000
2.55999998	64.68703000
2.59999998	71.87719000
2.63999998	71.87719000
2.67999998	66.48762000
2.71999998	66.48762000
2.75999998	61.09195000
2.79999998	59.29746000
2.83999998	52.10730000
2.87999998	44.92325000
2.91999998	35.93859000
2.95999998	30.54292000
2.99999998	25.15336000
3.03999998	21.55827000
3.07999998	16.16870000
3.11999998	10.77914000
3.15999998	7.18405700
3.19999998	3.58897700
3.23999998	-3.58897700
3.27999998	-8.98464900
3.31999998	-17.96930000
3.35999998	-26.95395000
3.39999998	-35.93859000
3.43999998	-43.12265000
3.47999998	-52.10730000
3.51999998	-57.50298000
3.55999998	-59.29746000
3.59999998	-61.09195000
3.63999998	-50.31281000
3.67999998	-43.12265000
3.71999998	-34.13800000
3.75999998	-28.74844000
3.79999998	-23.35887000
3.83999998	-25.15336000
3.87999998	-23.35887000
3.91999998	-25.15336000
3.95999998	-26.95395000
3.99999998	-28.74844000
4.03999998	-32.34352000
4.07999998	-32.34352000
4.11999997	-34.13800000
4.15999997	-37.73308000
4.19999997	-37.73308000
4.23999997	-30.54292000
4.27999997	-23.35887000
4.31999997	-16.16870000
4.35999997	-12.57363000
4.39999997	-5.38956800
4.43999997	1.79448800
4.47999997	3.58897700
4.51999997	8.98464900
4.55999997	12.57363000
4.59999997	14.37422000
4.63999997	21.55827000
4.67999997	25.15336000
4.71999997	28.74844000
4.75999997	32.34352000
4.79999997	35.93859000
4.83999997	46.71774000
4.87999997	53.90789000
4.91999997	61.09195000
4.95999997	66.48762000
4.99999997	70.07660000
5.03999997	70.07660000
5.07999997	68.28211000
5.11999997	62.89254000
5.15999997	57.50298000
5.19999997	52.10730000
5.23999997	46.71774000
5.27999997	37.73308000
5.31999997	32.34352000
5.35999997	25.15336000
5.39999997	19.76379000
5.43999997	14.37422000
5.47999997	10.77914000
5.51999997	7.18405700
5.55999997	1.79448800
5.59999997	-1.79448800
5.63999997	-8.98464900
5.67999997	-16.16870000
5.71999997	-25.15336000
5.75999996	-34.13800000
5.79999996	-43.12265000
5.83999996	-50.31281000
5.87999996	-55.70238000
5.91999996	-59.29746000
5.95999996	-52.10730000
5.99999996	-50.31281000
6.03999996	-37.73308000
6.07999996	-35.93859000
6.11999996	-32.34352000
6.15999996	-28.74844000
6.19999996	-28.74844000
6.23999996	-26.95395000
6.27999996	-28.74844000
6.31999996	-28.74844000
6.35999996	-28.74844000
6.39999996	-34.13800000
6.43999996	-34.13800000
6.47999996	-35.93859000
6.51999996	-34.13800000
6.55999996	-32.34352000
6.59999996	-26.95395000
6.63999996	-21.55827000
6.67999996	-16.16870000
6.71999996	-12.57363000
6.75999996	-8.98464900
6.79999996	-3.58897700
6.83999996	0.00000000
6.87999996	5.38956800
6.91999996	8.98464900
6.95999996	14.37422000
6.99999996	17.96930000
7.03999996	23.35887000
7.07999996	28.74844000
7.11999996	34.13800000
7.15999996	39.52757000
7.19999996	48.51222000
7.23999996	53.90789000
7.27999996	61.09195000
7.31999996	68.28211000
7.35999996	71.87719000
7.39999996	70.07660000
7.43999995	66.48762000
7.47999995	61.09195000
7.51999995	57.50298000
7.55999995	52.10730000
7.59999995	50.31281000
7.63999995	32.34352000
7.67999995	23.35887000
7.71999995	32.34352000
7.75999995	28.74844000
7.79999995	17.96930000
7.83999995	8.98464900
7.87999995	5.38956800
7.91999995	5.38956800
7.95999995	0.00000000
7.99999995	-8.98464900
8.03999995	-14.37422000
8.07999995	-23.35887000
8.11999995	-35.93859000
8.15999995	-44.92325000
8.19999995	-50.31281000
8.23999995	-55.70238000
8.27999995	-57.50298000
8.31999995	-55.70238000
8.35999995	-44.92325000
8.39999995	-39.52757000
8.43999995	-32.34352000
8.47999995	-28.74844000
8.51999995	-25.15336000
8.55999995	-25.15336000
8.59999995	-23.35887000
8.63999995	-25.15336000
8.67999995	-28.74844000
8.71999995	-28.74844000
8.75999995	-34.13800000
8.79999995	-34.13800000
8.83999995	-35.93859000
8.87999995	-32.34352000
8.91999995	-32.34352000
8.95999995	-26.95395000
8.99999995	-23.35887000
9.03999995	-16.16870000
9.07999994	-7.18405700
9.11999994	-7.18405700
9.15999994	-1.79448800
9.19999994	1.79448800
9.23999994	3.58897700
9.27999994	5.38956800
9.31999994	12.57363000
9.35999994	17.96930000
9.39999994	23.35887000
9.43999994	26.95395000
9.47999994	32.34352000
9.51999994	41.32816000
9.55999994	46.71774000
9.59999994	55.70238000
9.63999994	62.89254000
9.67999994	70.07660000
9.71999994	71.87719000
9.75999994	71.87719000
9.79999994	70.07660000
9.83999994	62.89254000
9.87999994	59.29746000
9.91999994	52.10730000
9.95999994	48.51222000
9.99999994	39.52757000
10.03999994	34.13800000
10.07999994	28.74844000
10.11999994	21.55827000
10.15999994	17.96930000
10.19999994	12.57363000
10.23999994	8.98464900
10.27999994	5.38956800
10.31999994	0.00000000
10.35999994	-7.18405700
10.39999994	-14.37422000
10.43999994	-23.35887000
10.47999994	-32.34352000
10.51999994	-41.32816000
10.55999994	-50.31281000
10.59999994	-57.50298000
10.63999994	-59.29746000
10.67999994	-61.09195000
10.71999993	-55.70238000
10.75999993	-50.31281000
10.79999993	-43.12265000
10.83999993	-35.93859000
10.87999993	-28.74844000
10.91999993	-25.15336000
10.95999993	-25.15336000
10.99999993	-23.35887000
11.03999993	-26.95395000
11.07999993	-26.95395000
11.11999993	-30.54292000
11.15999993	-32.34352000
11.19999993	-34.13800000
11.23999993	-32.34352000
11.27999993	-32.34352000
11.31999993	-28.74844000
11.35999993	-25.15336000
11.39999993	-21.55827000
11.43999993	-14.37422000
11.47999993	-7.18405700
11.51999993	-3.58897700
11.55999993	5.38956800
11.59999993	19.76379000
11.63999993	43.12265000
11.67999993	44.92325000
11.71999993	34.13800000
11.75999993	26.95395000
11.79999993	23.35887000
11.83999993	16.16870000
11.87999993	0.00000000
11.91999993	-8.98464900
11.95999993	0.00000000
11.99999993	28.74844000
12.03999993	53.90789000
12.07999993	66.48762000
12.11999993	71.87719000
12.15999993	79.06125000
12.19999993	86.25141000
12.23999993	84.45692000
12.27999993	68.28211000
12.31999993	53.90789000
12.35999992	48.51222000
12.39999992	46.71774000
12.43999992	41.32816000
12.47999992	28.74844000
12.51999992	16.16870000
12.55999992	16.16870000
12.59999992	14.37422000
12.63999992	14.37422000
12.67999992	5.38956800
12.71999992	-7.18405700
12.75999992	-14.37422000
12.79999992	-25.15336000
12.83999992	-37.73308000
12.87999992	-52.10730000
12.91999992	-66.48762000
12.95999992	-70.07660000
12.99999992	-66.48762000
13.03999992	-59.29746000
13.07999992	-57.50298000
13.11999992	-39.52757000
13.15999992	-28.74844000
13.19999992	-14.37422000
13.23999992	-12.57363000
13.27999992	-10.77914000
13.31999992	-16.16870000
13.35999992	-21.55827000
13.39999992	-25.15336000
13.43999992	-30.54292000
13.47999992	-35.93859000
13.51999992	-37.73308000
13.55999992	-37.73308000
13.59999992	-34.13800000
13.63999992	-32.34352000
13.67999992	-30.54292000
13.71999992	-28.74844000
13.75999992	-25.15336000
13.79999992	-17.96930000
13.83999992	-14.37422000
13.87999992	-10.77914000
13.91999992	-8.98464900
13.95999992	-8.98464900
13.99999991	0.00000000
14.03999991	8.98464900
14.07999991	19.76379000
14.11999991	25.15336000
14.15999991	32.34352000
14.19999991	37.73308000
14.23999991	44.92325000
14.27999991	50.31281000
14.31999991	55.70238000
14.35999991	62.89254000
14.39999991	70.07660000
14.43999991	73.67168000
14.47999991	73.67168000
14.51999991	71.87719000
14.55999991	62.89254000
14.59999991	57.50298000
14.63999991	53.90789000
14.67999991	48.51222000
14.71999991	43.12265000
14.75999991	35.93859000
14.79999991	30.54292000
14.83999991	25.15336000
14.87999991	17.96930000
14.91999991	12.57363000
14.95999991	8.98464900
14.99999991	5.38956800
15.03999991	1.79448800
15.07999991	-1.79448800
15.11999991	-8.98464900
15.15999991	-14.37422000
15.19999991	-25.15336000
15.23999991	-34.13800000
15.27999991	-43.12265000
15.31999991	-52.10730000
15.35999991	-59.29746000
15.39999991	-57.50298000
15.43999991	-57.50298000
15.47999991	-44.92325000
15.51999991	-39.52757000
15.55999991	-34.13800000
15.59999991	-30.54292000
15.63999990	-23.35887000
15.67999990	-21.55827000
15.71999990	-21.55827000
15.75999990	-23.35887000
15.79999990	-25.15336000
15.83999990	-32.34352000
15.87999990	-32.34352000
15.91999990	-35.93859000
15.95999990	-34.13800000
15.99999990	-35.93859000
16.03999990	-30.54292000
16.07999990	-23.35887000
16.11999990	-17.96930000
16.15999990	-14.37422000
16.19999990	-7.18405700
16.23999990	-1.79448800
16.27999990	0.00000000
16.31999990	3.58897700
16.35999990	5.38956800
16.39999990	8.98464900
16.43999990	14.37422000
16.47999990	19.76379000
16.51999990	23.35887000
16.55999990	28.74844000
16.59999990	35.93859000
16.63999990	44.92325000
16.67999990	52.10730000
16.71999990	61.09195000
16.75999990	70.07660000
16.79999990	75.47227000
16.83999990	75.47227000
16.87999990	71.87719000
16.91999990	68.28211000
16.95999990	62.89254000
16.99999990	55.70238000
17.03999990	50.31281000
17.07999990	43.12265000
17.11999990	37.73308000
17.15999990	32.34352000
17.19999990	26.95395000
17.23999990	19.76379000
17.27999989	16.16870000
17.31999989	10.77914000
17.35999989	5.38956800
17.39999989	1.79448800
17.43999989	-1.79448800
17.47999989	-19.76379000
17.51999989	-28.74844000
17.55999989	-23.35887000
17.59999989	-32.34352000
17.63999989	-46.71774000
17.67999989	-59.29746000
17.71999989	-52.10730000
17.75999989	-48.51222000
17.79999989	-41.32816000
17.83999989	-41.32816000
17.87999989	-37.73308000
17.91999989	-28.74844000
17.95999989	-25.15336000
17.99999989	-23.35887000
18.03999989	-23.35887000
18.07999989	-23.35887000
18.11999989	-26.95395000
18.15999989	-28.74844000
18.19999989	-30.54292000
18.23999989	-32.34352000
18.27999989	-35.93859000
18.31999989	-35.93859000
18.35999989	-32.34352000
18.39999989	-28.74844000
18.43999989	-25.15336000
18.47999989	-21.55827000
18.51999989	-14.37422000
18.55999989	-8.98464900
18.59999989	-7.18405700
18.63999989	-1.79448800
18.67999989	0.00000000
18.71999989	5.38956800
18.75999989	8.98464900
18.79999989	17.96930000
18.83999989	21.55827000
18.87999989	26.95395000
18.91999989	34.13800000
18.95999988	41.32816000
18.99999988	46.71774000
19.03999988	53.90789000
19.07999988	64.68703000
19.11999988	71.87719000
19.15999988	73.67168000
19.19999988	75.47227000
19.23999988	73.67168000
19.27999988	70.07660000
19.31999988	62.89254000
19.35999988	55.70238000
19.39999988	50.31281000
19.43999988	43.12265000
19.47999988	37.73308000
19.51999988	30.54292000
19.55999988	26.95395000
19.59999988	21.55827000
19.63999988	16.16870000
19.67999988	12.57363000
19.71999988	7.18405700
19.75999988	1.79448800
19.79999988	-3.58897700
19.83999988	-10.77914000
19.87999988	-19.76379000
19.91999988	-28.74844000
19.95999988	-37.73308000
19.99999988	-46.71774000
20.03999988	-53.90789000
20.07999988	-57.50298000
20.11999988	-55.70238000
20.15999988	-46.71774000
20.19999988	-44.92325000
20.23999988	-37.73308000
20.27999988	-35.93859000
20.31999988	-28.74844000
20.35999988	-28.74844000
20.39999988	-28.74844000
20.43999988	-28.74844000
20.47999988	-28.74844000
20.51999988	-30.54292000
20.55999988	-32.34352000
20.59999987	-32.34352000
20.63999987	-34.13800000
20.67999987	-34.13800000
20.71999987	-30.54292000
20.75999987	-28.74844000
20.79999987	-21.55827000
20.83999987	-16.16870000
20.87999987	-12.57363000
20.91999987	-7.18405700
20.95999987	-3.58897700
20.99999987	-1.79448800
21.03999987	1.79448800
21.07999987	5.38956800
21.11999987	10.77914000
21.15999987	14.37422000
21.19999987	21.55827000
21.23999987	26.95395000
21.27999987	30.54292000
21.31999987	35.93859000
21.35999987	44.92325000
21.39999987	50.31281000
21.43999987	59.29746000
21.47999987	68.28211000
21.51999987	71.87719000
21.55999987	71.87719000
21.59999987	71.87719000
21.63999987	68.28211000
21.67999987	62.89254000
21.71999987	55.70238000
21.75999987	50.31281000
21.79999987	43.12265000
21.83999987	39.52757000
21.87999987	32.34352000
21.91999987	26.95395000
21.95999987	21.55827000
21.99999987	16.16870000
22.03999987	12.57363000
22.07999987	7.18405700
22.11999987	1.79448800
22.15999987	-3.58897700
22.19999987	-8.98464900
22.23999986	-17.96930000
22.27999986	-26.95395000
22.31999986	-35.93859000
22.35999986	-48.51222000
22.39999986	-52.10730000
22.43999986	-59.29746000
22.47999986	-53.90789000
22.51999986	-50.31281000
22.55999986	-43.12265000
22.59999986	-35.93859000
22.63999986	-35.93859000
22.67999986	-28.74844000
22.71999986	-26.95395000
22.75999986	-26.95395000
22.79999986	-26.95395000
22.83999986	-26.95395000
22.87999986	-28.74844000
22.91999986	-30.54292000
22.95999986	-32.34352000
22.99999986	-34.13800000
23.03999986	-34.13800000
23.07999986	-34.13800000
23.11999986	-30.54292000
23.15999986	-25.15336000
23.19999986	-21.55827000
23.23999986	-14.37422000
23.27999986	-10.77914000
23.31999986	-7.18405700
23.35999986	-3.58897700
23.39999986	0.00000000
23.43999986	1.79448800
23.47999986	5.38956800
23.51999986	7.18405700
23.55999986	14.37422000
23.59999986	21.55827000
23.63999986	28.74844000
23.67999986	35.93859000
23.71999986	43.12265000
23.75999986	46.71774000
23.79999986	55.70238000
23.83999986	64.68703000
23.87999985	71.87719000
23.91999985	77.26676000
23.95999985	75.47227000
23.99999985	71.87719000
24.03999985	64.68703000
24.07999985	61.09195000
24.11999985	52.10730000
24.15999985	46.71774000
24.19999985	41.32816000
24.23999985	34.13800000
24.27999985	28.74844000
24.31999985	21.55827000
24.35999985	16.16870000
24.39999985	12.57363000
24.43999985	8.98464900
24.47999985	3.58897700
24.51999985	-1.79448800
24.55999985	-7.18405700
24.59999985	-14.37422000
24.63999985	-23.35887000
24.67999985	-32.34352000
24.71999985	-41.32816000
24.75999985	-48.51222000
24.79999985	-53.90789000
24.83999985	-57.50298000
24.87999985	-59.29746000
24.91999985	-57.50298000
24.95999985	-52.10730000
24.99999985	-44.92325000
25.03999985	-37.73308000
25.07999985	-34.13800000
25.11999985	-28.74844000
25.15999985	-28.74844000
25.19999985	-28.74844000
25.23999985	-28.74844000
25.27999985	-30.54292000
25.31999985	-32.34352000
25.35999985	-34.13800000
25.39999985	-34.13800000
25.43999985	-35.93859000
25.47999985	-32.34352000
25.51999984	-28.74844000
25.55999984	-26.95395000
25.59999984	-23.35887000
25.63999984	-14.37422000
25.67999984	-8.98464900
25.71999984	-3.58897700
25.75999984	0.00000000
25.79999984	3.58897700
25.83999984	7.18405700
25.87999984	10.77914000
25.91999984	14.37422000
25.95999984	19.76379000
25.99999984	23.35887000
26.03999984	28.74844000
26.07999984	32.34352000
26.11999984	39.52757000
26.15999984	44.92325000
26.19999984	55.70238000
26.23999984	62.89254000
26.27999984	70.07660000
26.31999984	71.87719000
26.35999984	70.07660000
26.39999984	66.48762000
26.43999984	61.09195000
26.47999984	55.70238000
26.51999984	50.31281000
26.55999984	43.12265000
26.59999984	37.73308000
26.63999984	30.54292000
26.67999984	25.15336000
26.71999984	17.96930000
26.75999984	14.37422000
26.79999984	10.77914000
26.83999984	7.18405700
26.87999984	3.58897700
26.91999984	-1.79448800
26.95999984	-10.77914000
26.99999984	-16.16870000
27.03999984	-25.15336000
27.07999984	-35.93859000
27.11999984	-43.12265000
27.15999983	-50.31281000
27.19999983	-55.70238000
27.23999983	-59.29746000
27.27999983	-57.50298000
27.31999983	-57.50298000
27.35999983	-59.29746000
27.39999983	-34.13800000
27.43999983	-19.76379000
27.47999983	-16.16870000
27.51999983	-21.55827000
27.55999983	-21.55827000
27.59999983	-19.76379000
27.63999983	-19.76379000
27.67999983	-26.95395000
27.71999983	-28.74844000
27.75999983	-28.74844000
27.79999983	-32.34352000
27.83999983	-34.13800000
27.87999983	-32.34352000
27.91999983	-30.54292000
27.95999983	-25.15336000
27.99999983	-21.55827000
28.03999983	-14.37422000
28.07999983	-10.77914000
28.11999983	-7.18405700
28.15999983	-3.58897700
28.19999983	0.00000000
28.23999983	1.79448800
28.27999983	5.38956800
28.31999983	10.77914000
28.35999983	17.96930000
28.39999983	23.35887000
28.43999983	30.54292000
28.47999983	41.32816000
28.51999983	50.31281000
28.55999983	61.09195000
28.59999983	71.87719000
28.63999983	82.65633000
28.67999983	84.45692000
28.71999983	79.06125000
28.75999983	75.47227000
28.79999982	68.28211000
28.83999982	57.50298000
28.87999982	52.10730000
28.91999982	46.71774000
28.95999982	41.32816000
28.99999982	30.54292000
29.03999982	25.15336000
29.07999982	21.55827000
29.11999982	16.16870000
29.15999982	12.57363000
29.19999982	7.18405700
29.23999982	3.58897700
29.27999982	0.00000000
29.31999982	-7.18405700
29.35999982	-16.16870000
29.39999982	-26.95395000
29.43999982	-35.93859000
29.47999982	-44.92325000
29.51999982	-52.10730000
29.55999982	-55.70238000
29.59999982	-64.68703000
29.63999982	-52.10730000
29.67999982	-44.92325000
29.71999982	-32.34352000
29.75999982	-30.54292000
29.79999982	-23.35887000
29.83999982	-21.55827000
29.87999982	-19.76379000
29.91999982	-21.55827000
29.95999982	-23.35887000
29.99999982	-25.15336000
30.03999982	-28.74844000
30.07999982	-30.54292000
30.11999982	-32.34352000
30.15999982	-34.13800000
30.19999982	-34.13800000
30.23999982	-30.54292000
30.27999982	-25.15336000
30.31999982	-19.76379000
30.35999982	-14.37422000
30.39999982	-8.98464900
30.43999982	-1.79448800
30.47999981	-3.58897700
30.51999981	0.00000000
30.55999981	0.00000000
30.59999981	7.18405700
30.63999981	8.98464900
30.67999981	14.37422000
30.71999981	21.55827000
30.75999981	28.74844000
30.79999981	35.93859000
30.83999981	44.92325000
30.87999981	55.70238000
30.91999981	64.68703000
30.95999981	75.47227000
30.99999981	79.06125000
31.03999981	79.06125000
31.07999981	77.26676000
31.11999981	71.87719000
31.15999981	62.89254000
31.19999981	55.70238000
31.23999981	50.31281000
31.27999981	43.12265000
31.31999981	35.93859000
31.35999981	28.74844000
31.39999981	23.35887000
31.43999981	19.76379000
31.47999981	14.37422000
31.51999981	12.57363000
31.55999981	7.18405700
31.59999981	3.58897700
31.63999981	-1.79448800
31.67999981	-8.98464900
31.71999981	-16.16870000
31.75999981	-26.95395000
31.79999981	-35.93859000
31.83999981	-44.92325000
