Time	Channel A
(us)	(mV)

0.00000000	-37.73308000
0.04000000	-37.73308000
0.08000000	-37.73308000
0.12000000	-43.12265000
0.16000000	-53.90789000
0.20000000	-57.50298000
0.24000000	-59.29746000
0.28000000	-55.70238000
0.32000000	-44.92325000
0.36000000	-37.73308000
0.40000000	-28.74844000
0.44000000	-21.55827000
0.48000000	-14.37422000
0.52000000	-10.77914000
0.56000000	-8.98464900
0.60000000	-7.18405700
0.64000000	-3.58897700
0.68000000	1.79448800
0.72000000	5.38956800
0.76000000	10.77914000
0.80000000	17.96930000
0.83999999	28.74844000
0.87999999	41.32816000
0.91999999	52.10730000
0.95999999	62.89254000
0.99999999	71.87719000
1.03999999	77.26676000
1.07999999	88.04590000
1.11999999	77.26676000
1.15999999	66.48762000
1.19999999	57.50298000
1.23999999	57.50298000
1.27999999	55.70238000
1.31999999	52.10730000
1.35999999	48.51222000
1.39999999	50.31281000
1.43999999	50.31281000
1.47999999	48.51222000
1.51999999	50.31281000
1.55999999	52.10730000
1.59999999	50.31281000
1.63999999	48.51222000
1.67999999	44.92325000
1.71999999	37.73308000
1.75999999	25.15336000
1.79999999	10.77914000
1.83999999	-7.18405700
1.87999999	-21.55827000
1.91999999	-41.32816000
1.95999999	-59.29746000
1.99999999	-77.26676000
2.03999999	-95.23605000
2.07999999	-104.22070000
2.11999999	-95.23605000
2.15999999	-64.68703000
2.19999999	-48.51222000
2.23999999	-39.52757000
2.27999999	-37.73308000
2.31999999	-32.34352000
2.35999999	-35.93859000
2.39999999	-35.93859000
2.43999999	-35.93859000
2.47999998	-37.73308000
2.51999998	-39.52757000
2.55999998	-46.71774000
2.59999998	-52.10730000
2.63999998	-57.50298000
2.67999998	-57.50298000
2.71999998	-53.90789000
2.75999998	-43.12265000
2.79999998	-32.34352000
2.83999998	-23.35887000
2.87999998	-16.16870000
2.91999998	-10.77914000
2.95999998	-19.76379000
2.99999998	-21.55827000
3.03999998	-5.38956800
3.07999998	-3.58897700
3.11999998	-7.18405700
3.15999998	-5.38956800
3.19999998	5.38956800
3.23999998	19.76379000
3.27999998	32.34352000
3.31999998	46.71774000
3.35999998	61.09195000
3.39999998	75.47227000
3.43999998	84.45692000
3.47999998	93.44157000
3.51999998	84.45692000
3.55999998	71.87719000
3.59999998	57.50298000
3.63999998	61.09195000
3.67999998	57.50298000
3.71999998	55.70238000
3.75999998	50.31281000
3.79999998	48.51222000
3.83999998	50.31281000
3.87999998	50.31281000
3.91999998	50.31281000
3.95999998	53.90789000
3.99999998	55.70238000
4.03999998	55.70238000
4.07999998	50.31281000
4.11999997	46.71774000
4.15999997	35.93859000
4.19999997	25.15336000
4.23999997	12.57363000
4.27999997	-3.58897700
4.31999997	-23.35887000
4.35999997	-41.32816000
4.39999997	-59.29746000
4.43999997	-77.26676000
4.47999997	-97.03055000
4.51999997	-107.81580000
4.55999997	-93.44157000
4.59999997	-71.87719000
4.63999997	-55.70238000
4.67999997	-43.12265000
4.71999997	-39.52757000
4.75999997	-35.93859000
4.79999997	-34.13800000
4.83999997	-32.34352000
4.87999997	-34.13800000
4.91999997	-37.73308000
4.95999997	-43.12265000
4.99999997	-48.51222000
5.03999997	-52.10730000
5.07999997	-57.50298000
5.11999997	-61.09195000
5.15999997	-55.70238000
5.19999997	-44.92325000
5.23999997	-34.13800000
5.27999997	-28.74844000
5.31999997	-21.55827000
5.35999997	-16.16870000
5.39999997	-14.37422000
5.43999997	-12.57363000
5.47999997	-8.98464900
5.51999997	-3.58897700
5.55999997	0.00000000
5.59999997	5.38956800
5.63999997	12.57363000
5.67999997	21.55827000
5.71999997	34.13800000
5.75999996	46.71774000
5.79999996	57.50298000
5.83999996	66.48762000
5.87999996	73.67168000
5.91999996	79.06125000
5.95999996	84.45692000
5.99999996	71.87719000
6.03999996	62.89254000
6.07999996	55.70238000
6.11999996	55.70238000
6.15999996	55.70238000
6.19999996	52.10730000
6.23999996	50.31281000
6.27999996	52.10730000
6.31999996	50.31281000
6.35999996	50.31281000
6.39999996	52.10730000
6.43999996	52.10730000
6.47999996	50.31281000
6.51999996	46.71774000
6.55999996	41.32816000
6.59999996	35.93859000
6.63999996	23.35887000
6.67999996	10.77914000
6.71999996	-3.58897700
6.75999996	-21.55827000
6.79999996	-39.52757000
6.83999996	-59.29746000
6.87999996	-77.26676000
6.91999996	-95.23605000
6.95999996	-100.62560000
6.99999996	-93.44157000
7.03999996	-68.28211000
7.07999996	-50.31281000
7.11999996	-39.52757000
7.15999996	-35.93859000
7.19999996	-34.13800000
7.23999996	-32.34352000
7.27999996	-34.13800000
7.31999996	-35.93859000
7.35999996	-37.73308000
7.39999996	-43.12265000
7.43999995	-48.51222000
7.47999995	-53.90789000
7.51999995	-57.50298000
7.55999995	-59.29746000
7.59999995	-53.90789000
7.63999995	-43.12265000
7.67999995	-32.34352000
7.71999995	-25.15336000
7.75999995	-19.76379000
7.79999995	-16.16870000
7.83999995	-16.16870000
7.87999995	-10.77914000
7.91999995	-12.57363000
7.95999995	-5.38956800
7.99999995	-1.79448800
8.03999995	0.00000000
8.07999995	7.18405700
8.11999995	17.96930000
8.15999995	32.34352000
8.19999995	48.51222000
8.23999995	59.29746000
8.27999995	71.87719000
8.31999995	82.65633000
8.35999995	93.44157000
8.39999995	82.65633000
8.43999995	71.87719000
8.47999995	57.50298000
8.51999995	59.29746000
8.55999995	57.50298000
8.59999995	53.90789000
8.63999995	53.90789000
8.67999995	50.31281000
8.71999995	50.31281000
8.75999995	50.31281000
8.79999995	50.31281000
8.83999995	53.90789000
8.87999995	55.70238000
8.91999995	53.90789000
8.95999995	50.31281000
8.99999995	44.92325000
9.03999995	35.93859000
9.07999994	26.95395000
9.11999994	14.37422000
9.15999994	-1.79448800
9.19999994	-17.96930000
9.23999994	-37.73308000
9.27999994	-57.50298000
9.31999994	-73.67168000
9.35999994	-93.44157000
9.39999994	-104.22070000
9.43999994	-89.84650000
9.47999994	-71.87719000
9.51999994	-59.29746000
9.55999994	-53.90789000
9.59999994	-43.12265000
9.63999994	-35.93859000
9.67999994	-35.93859000
9.71999994	-35.93859000
9.75999994	-37.73308000
9.79999994	-37.73308000
9.83999994	-41.32816000
9.87999994	-48.51222000
9.91999994	-53.90789000
9.95999994	-57.50298000
9.99999994	-57.50298000
10.03999994	-52.10730000
10.07999994	-44.92325000
10.11999994	-37.73308000
10.15999994	-28.74844000
10.19999994	-21.55827000
10.23999994	-14.37422000
10.27999994	-12.57363000
10.31999994	-8.98464900
10.35999994	-7.18405700
10.39999994	-3.58897700
10.43999994	0.00000000
10.47999994	3.58897700
10.51999994	8.98464900
10.55999994	16.16870000
10.59999994	30.54292000
10.63999994	43.12265000
10.67999994	52.10730000
10.71999993	62.89254000
10.75999993	70.07660000
10.79999993	79.06125000
10.83999993	88.04590000
10.87999993	79.06125000
10.91999993	66.48762000
10.95999993	57.50298000
10.99999993	57.50298000
11.03999993	53.90789000
11.07999993	53.90789000
11.11999993	52.10730000
11.15999993	50.31281000
11.19999993	52.10730000
11.23999993	50.31281000
11.27999993	50.31281000
11.31999993	50.31281000
11.35999993	50.31281000
11.39999993	46.71774000
11.43999993	43.12265000
11.47999993	35.93859000
11.51999993	26.95395000
11.55999993	12.57363000
11.59999993	-1.79448800
11.63999993	-19.76379000
11.67999993	-37.73308000
11.71999993	-57.50298000
11.75999993	-75.47227000
11.79999993	-93.44157000
11.83999993	-104.22070000
11.87999993	-91.64098000
11.91999993	-71.87719000
11.95999993	-52.10730000
11.99999993	-46.71774000
12.03999993	-39.52757000
12.07999993	-35.93859000
12.11999993	-34.13800000
12.15999993	-34.13800000
12.19999993	-34.13800000
12.23999993	-35.93859000
12.27999993	-41.32816000
12.31999993	-46.71774000
12.35999992	-53.90789000
12.39999992	-57.50298000
12.43999992	-61.09195000
12.47999992	-57.50298000
12.51999992	-44.92325000
12.55999992	-35.93859000
12.59999992	-28.74844000
12.63999992	-23.35887000
12.67999992	-16.16870000
12.71999992	-12.57363000
12.75999992	-7.18405700
12.79999992	-14.37422000
12.83999992	-14.37422000
12.87999992	3.58897700
12.91999992	8.98464900
12.95999992	10.77914000
12.99999992	14.37422000
13.03999992	30.54292000
13.07999992	48.51222000
13.11999992	59.29746000
13.15999992	66.48762000
13.19999992	77.26676000
13.23999992	88.04590000
13.27999992	84.45692000
13.31999992	73.67168000
13.35999992	61.09195000
13.39999992	57.50298000
13.43999992	57.50298000
13.47999992	53.90789000
13.51999992	53.90789000
13.55999992	50.31281000
13.59999992	48.51222000
13.63999992	50.31281000
13.67999992	52.10730000
13.71999992	53.90789000
13.75999992	53.90789000
13.79999992	53.90789000
13.83999992	50.31281000
13.87999992	44.92325000
13.91999992	37.73308000
13.95999992	28.74844000
13.99999991	16.16870000
14.03999991	0.00000000
14.07999991	-16.16870000
14.11999991	-35.93859000
14.15999991	-53.90789000
14.19999991	-71.87719000
14.23999991	-91.64098000
14.27999991	-102.42620000
14.31999991	-93.44157000
14.35999991	-75.47227000
14.39999991	-53.90789000
14.43999991	-46.71774000
14.47999991	-41.32816000
14.51999991	-37.73308000
14.55999991	-35.93859000
14.59999991	-37.73308000
14.63999991	-35.93859000
14.67999991	-34.13800000
14.71999991	-37.73308000
14.75999991	-44.92325000
14.79999991	-52.10730000
14.83999991	-53.90789000
14.87999991	-55.70238000
14.91999991	-52.10730000
14.95999991	-44.92325000
14.99999991	-35.93859000
15.03999991	-25.15336000
15.07999991	-21.55827000
15.11999991	-16.16870000
15.15999991	-14.37422000
15.19999991	-12.57363000
15.23999991	-8.98464900
15.27999991	-7.18405700
15.31999991	-3.58897700
15.35999991	0.00000000
15.39999991	7.18405700
15.43999991	17.96930000
15.47999991	28.74844000
15.51999991	43.12265000
15.55999991	53.90789000
15.59999991	64.68703000
15.63999990	75.47227000
15.67999990	82.65633000
15.71999990	88.04590000
15.75999990	77.26676000
15.79999990	62.89254000
15.83999990	55.70238000
15.87999990	59.29746000
15.91999990	55.70238000
15.95999990	53.90789000
15.99999990	50.31281000
16.03999990	50.31281000
16.07999990	50.31281000
16.11999990	50.31281000
16.15999990	50.31281000
16.19999990	53.90789000
16.23999990	52.10730000
16.27999990	48.51222000
16.31999990	44.92325000
16.35999990	39.52757000
16.39999990	28.74844000
16.43999990	14.37422000
16.47999990	0.00000000
16.51999990	-17.96930000
16.55999990	-37.73308000
16.59999990	-57.50298000
16.63999990	-75.47227000
16.67999990	-93.44157000
16.71999990	-104.22070000
16.75999990	-88.04590000
16.79999990	-64.68703000
16.83999990	-44.92325000
16.87999990	-41.32816000
16.91999990	-35.93859000
16.95999990	-32.34352000
16.99999990	-32.34352000
17.03999990	-32.34352000
17.07999990	-34.13800000
17.11999990	-34.13800000
17.15999990	-37.73308000
17.19999990	-44.92325000
17.23999990	-52.10730000
17.27999989	-55.70238000
17.31999989	-57.50298000
17.35999989	-52.10730000
17.39999989	-41.32816000
17.43999989	-30.54292000
17.47999989	-23.35887000
17.51999989	-17.96930000
17.55999989	-12.57363000
17.59999989	-10.77914000
17.63999989	-10.77914000
17.67999989	-14.37422000
17.71999989	-8.98464900
17.75999989	-7.18405700
17.79999989	0.00000000
17.83999989	7.18405700
17.87999989	16.16870000
17.91999989	32.34352000
17.95999989	44.92325000
17.99999989	61.09195000
18.03999989	73.67168000
18.07999989	84.45692000
18.11999989	91.64098000
18.15999989	84.45692000
18.19999989	71.87719000
18.23999989	59.29746000
18.27999989	61.09195000
18.31999989	57.50298000
18.35999989	55.70238000
18.39999989	52.10730000
18.43999989	50.31281000
18.47999989	50.31281000
18.51999989	50.31281000
18.55999989	50.31281000
18.59999989	53.90789000
18.63999989	55.70238000
18.67999989	53.90789000
18.71999989	50.31281000
18.75999989	44.92325000
18.79999989	35.93859000
18.83999989	23.35887000
18.87999989	10.77914000
18.91999989	-3.58897700
18.95999988	-23.35887000
18.99999988	-43.12265000
19.03999988	-62.89254000
19.07999988	-80.86184000
19.11999988	-104.22070000
19.15999988	-97.03055000
19.19999988	-91.64098000
19.23999988	-55.70238000
19.27999988	-43.12265000
19.31999988	-34.13800000
19.35999988	-39.52757000
19.39999988	-35.93859000
19.43999988	-32.34352000
19.47999988	-32.34352000
19.51999988	-32.34352000
19.55999988	-37.73308000
19.59999988	-43.12265000
19.63999988	-48.51222000
19.67999988	-53.90789000
19.71999988	-57.50298000
19.75999988	-59.29746000
19.79999988	-52.10730000
19.83999988	-37.73308000
19.87999988	-26.95395000
19.91999988	-19.76379000
19.95999988	-14.37422000
19.99999988	-8.98464900
20.03999988	-7.18405700
20.07999988	-5.38956800
20.11999988	-3.58897700
20.15999988	0.00000000
20.19999988	3.58897700
20.23999988	7.18405700
20.27999988	14.37422000
20.31999988	23.35887000
20.35999988	35.93859000
20.39999988	50.31281000
20.43999988	61.09195000
20.47999988	70.07660000
20.51999988	79.06125000
20.55999988	86.25141000
20.59999987	80.86184000
20.63999987	66.48762000
20.67999987	57.50298000
20.71999987	57.50298000
20.75999987	55.70238000
20.79999987	53.90789000
20.83999987	52.10730000
20.87999987	48.51222000
20.91999987	48.51222000
20.95999987	48.51222000
20.99999987	50.31281000
21.03999987	52.10730000
21.07999987	53.90789000
21.11999987	52.10730000
21.15999987	48.51222000
21.19999987	43.12265000
21.23999987	32.34352000
21.27999987	19.76379000
21.31999987	5.38956800
21.35999987	-10.77914000
21.39999987	-28.74844000
21.43999987	-48.51222000
21.47999987	-68.28211000
21.51999987	-84.45692000
21.55999987	-113.20540000
21.59999987	-93.44157000
21.63999987	-79.06125000
21.67999987	-46.71774000
21.71999987	-44.92325000
21.75999987	-37.73308000
21.79999987	-35.93859000
21.83999987	-34.13800000
21.87999987	-34.13800000
21.91999987	-35.93859000
21.95999987	-34.13800000
21.99999987	-35.93859000
22.03999987	-43.12265000
22.07999987	-50.31281000
22.11999987	-55.70238000
22.15999987	-57.50298000
22.19999987	-57.50298000
22.23999986	-46.71774000
22.27999986	-35.93859000
22.31999986	-25.15336000
22.35999986	-19.76379000
22.39999986	-14.37422000
22.43999986	-10.77914000
22.47999986	-8.98464900
22.51999986	-7.18405700
22.55999986	-5.38956800
22.59999986	1.79448800
22.63999986	-1.79448800
22.67999986	-3.58897700
22.71999986	17.96930000
22.75999986	34.13800000
22.79999986	43.12265000
22.83999986	48.51222000
22.87999986	61.09195000
22.91999986	75.47227000
22.95999986	86.25141000
22.99999986	86.25141000
23.03999986	75.47227000
23.07999986	64.68703000
23.11999986	57.50298000
23.15999986	57.50298000
23.19999986	57.50298000
23.23999986	50.31281000
23.27999986	48.51222000
23.31999986	50.31281000
23.35999986	50.31281000
23.39999986	52.10730000
23.43999986	52.10730000
23.47999986	53.90789000
23.51999986	53.90789000
23.55999986	52.10730000
23.59999986	46.71774000
23.63999986	41.32816000
23.67999986	32.34352000
23.71999986	19.76379000
23.75999986	5.38956800
23.79999986	-12.57363000
23.83999986	-30.54292000
23.87999985	-50.31281000
23.91999985	-68.28211000
23.95999985	-86.25141000
23.99999985	-118.59490000
24.03999985	-88.04590000
24.07999985	-75.47227000
24.11999985	-44.92325000
24.15999985	-46.71774000
24.19999985	-35.93859000
24.23999985	-32.34352000
24.27999985	-32.34352000
24.31999985	-30.54292000
24.35999985	-34.13800000
24.39999985	-34.13800000
24.43999985	-37.73308000
24.47999985	-44.92325000
24.51999985	-50.31281000
24.55999985	-57.50298000
24.59999985	-59.29746000
24.63999985	-55.70238000
24.67999985	-43.12265000
24.71999985	-34.13800000
24.75999985	-25.15336000
24.79999985	-17.96930000
24.83999985	-12.57363000
24.87999985	-10.77914000
24.91999985	-10.77914000
24.95999985	-8.98464900
24.99999985	-7.18405700
25.03999985	-5.38956800
25.07999985	0.00000000
25.11999985	5.38956800
25.15999985	14.37422000
25.19999985	28.74844000
25.23999985	43.12265000
25.27999985	57.50298000
25.31999985	70.07660000
25.35999985	79.06125000
25.39999985	91.64098000
25.43999985	86.25141000
25.47999985	75.47227000
25.51999984	62.89254000
25.55999984	57.50298000
25.59999984	59.29746000
25.63999984	55.70238000
25.67999984	50.31281000
25.71999984	50.31281000
25.75999984	50.31281000
25.79999984	50.31281000
25.83999984	50.31281000
25.87999984	53.90789000
25.91999984	55.70238000
25.95999984	53.90789000
25.99999984	52.10730000
26.03999984	46.71774000
26.07999984	37.73308000
26.11999984	28.74844000
26.15999984	16.16870000
26.19999984	0.00000000
26.23999984	-16.16870000
26.27999984	-35.93859000
26.31999984	-55.70238000
26.35999984	-73.67168000
26.39999984	-93.44157000
26.43999984	-116.80040000
26.47999984	-89.84650000
26.51999984	-73.67168000
26.55999984	-44.92325000
26.59999984	-44.92325000
26.63999984	-37.73308000
26.67999984	-35.93859000
26.71999984	-32.34352000
26.75999984	-34.13800000
26.79999984	-32.34352000
26.83999984	-32.34352000
26.87999984	-35.93859000
26.91999984	-44.92325000
26.95999984	-50.31281000
26.99999984	-55.70238000
27.03999984	-57.50298000
27.07999984	-53.90789000
27.11999984	-43.12265000
27.15999983	-30.54292000
27.19999983	-23.35887000
27.23999983	-16.16870000
27.27999983	-12.57363000
27.31999983	-8.98464900
27.35999983	-7.18405700
27.39999983	-7.18405700
27.43999983	-3.58897700
27.47999983	0.00000000
27.51999983	0.00000000
27.55999983	8.98464900
27.59999983	17.96930000
27.63999983	32.34352000
27.67999983	48.51222000
27.71999983	59.29746000
27.75999983	70.07660000
27.79999983	79.06125000
27.83999983	86.25141000
27.87999983	84.45692000
27.91999983	71.87719000
27.95999983	61.09195000
27.99999983	57.50298000
28.03999983	59.29746000
28.07999983	53.90789000
28.11999983	50.31281000
28.15999983	50.31281000
28.19999983	50.31281000
28.23999983	48.51222000
28.27999983	50.31281000
28.31999983	53.90789000
28.35999983	53.90789000
28.39999983	52.10730000
28.43999983	50.31281000
28.47999983	43.12265000
28.51999983	34.13800000
28.55999983	21.55827000
28.59999983	8.98464900
28.63999983	-7.18405700
28.67999983	-25.15336000
28.71999983	-44.92325000
28.75999983	-64.68703000
28.79999982	-82.65633000
28.83999982	-102.42620000
28.87999982	-91.64098000
28.91999982	-79.06125000
28.95999982	-50.31281000
28.99999982	-43.12265000
29.03999982	-37.73308000
29.07999982	-32.34352000
29.11999982	-25.15336000
29.15999982	-25.15336000
29.19999982	-30.54292000
29.23999982	-30.54292000
29.27999982	-32.34352000
29.31999982	-39.52757000
29.35999982	-44.92325000
29.39999982	-53.90789000
29.43999982	-57.50298000
29.47999982	-55.70238000
29.51999982	-46.71774000
29.55999982	-35.93859000
29.59999982	-28.74844000
29.63999982	-19.76379000
29.67999982	-12.57363000
29.71999982	-7.18405700
29.75999982	-7.18405700
29.79999982	-8.98464900
29.83999982	-7.18405700
29.87999982	-3.58897700
29.91999982	5.38956800
29.95999982	17.96930000
29.99999982	30.54292000
30.03999982	43.12265000
30.07999982	57.50298000
30.11999982	62.89254000
30.15999982	62.89254000
30.19999982	64.68703000
30.23999982	71.87719000
30.27999982	52.10730000
30.31999982	39.52757000
30.35999982	34.13800000
30.39999982	43.12265000
30.43999982	50.31281000
30.47999981	57.50298000
30.51999981	57.50298000
30.55999981	62.89254000
30.59999981	62.89254000
30.63999981	61.09195000
30.67999981	61.09195000
30.71999981	62.89254000
30.75999981	61.09195000
30.79999981	62.89254000
30.83999981	59.29746000
30.87999981	53.90789000
30.91999981	43.12265000
30.95999981	30.54292000
30.99999981	17.96930000
31.03999981	1.79448800
31.07999981	-16.16870000
31.11999981	-39.52757000
31.15999981	-61.09195000
31.19999981	-86.25141000
31.23999981	-107.81580000
31.27999981	-122.19000000
31.31999981	-102.42620000
31.35999981	-77.26676000
31.39999981	-53.90789000
31.43999981	-50.31281000
31.47999981	-37.73308000
31.51999981	-32.34352000
31.55999981	-28.74844000
31.59999981	-23.35887000
31.63999981	-23.35887000
31.67999981	-21.55827000
31.71999981	-32.34352000
