Time	Channel A
(us)	(mV)

0.00000000	80.70620000
0.04000000	67.21701000
0.08000000	49.25687000
0.12000000	35.78295000
0.16000000	22.29377000
0.20000000	13.32133000
0.24000000	-0.15259250
0.28000000	-13.62651000
0.32000000	-22.59896000
0.36000000	-31.58666000
0.40000000	-36.08813000
0.44000000	-45.06058000
0.48000000	-54.04828000
0.52000000	-58.54976000
0.56000000	-63.03598000
0.60000000	-72.02368000
0.64000000	-76.50990000
0.68000000	-85.49760000
0.72000000	-94.48530000
0.76000000	-98.97152000
0.80000000	-107.95920000
0.83999999	-112.44540000
0.87999999	-116.94690000
0.91999999	-125.91940000
0.95999999	-130.42080000
0.99999999	-134.90710000
1.03999999	-134.90710000
1.07999999	-134.90710000
1.11999999	-130.42080000
1.15999999	-125.91940000
1.19999999	-116.94690000
1.23999999	-107.95920000
1.27999999	-98.97152000
1.31999999	-89.98383000
1.35999999	-76.50990000
1.39999999	-63.03598000
1.43999999	-45.06058000
1.47999999	-31.58666000
1.51999999	-18.11273000
1.55999999	-4.63881300
1.59999999	8.81984900
1.63999999	17.80755000
1.67999999	31.28147000
1.71999999	44.75539000
1.75999999	49.25687000
1.79999999	58.24457000
1.83999999	67.21701000
1.87999999	71.71850000
1.91999999	80.70620000
1.95999999	89.67863000
1.99999999	94.18011000
2.03999999	107.65400000
2.07999999	112.14030000
2.11999999	121.12800000
2.15999999	125.61420000
2.19999999	134.60190000
2.23999999	139.10340000
2.27999999	143.58960000
2.31999999	143.58960000
2.35999999	143.58960000
2.39999999	143.58960000
2.43999999	139.10340000
2.47999998	130.11560000
2.51999998	121.12800000
2.55999998	112.14030000
2.59999998	98.66634000
2.63999998	85.19241000
2.67999998	71.71850000
2.71999998	53.74309000
2.75999998	40.26917000
2.79999998	26.79525000
2.83999998	13.32133000
2.87999998	-0.15259250
2.91999998	-9.12503300
2.95999998	-18.11273000
2.99999998	-31.58666000
3.03999998	-36.08813000
3.07999998	-49.56206000
3.11999998	-54.04828000
3.15999998	-58.54976000
3.19999998	-63.03598000
3.23999998	-72.02368000
3.27999998	-76.50990000
3.31999998	-85.49760000
3.35999998	-89.98383000
3.39999998	-98.97152000
3.43999998	-103.45770000
3.47999998	-107.95920000
3.51999998	-125.91940000
3.55999998	-125.91940000
3.59999998	-121.43310000
3.63999998	-130.42080000
3.67999998	-134.90710000
3.71999998	-134.90710000
3.75999998	-130.42080000
3.79999998	-125.91940000
3.83999998	-121.43310000
3.87999998	-112.44540000
3.91999998	-103.45770000
3.95999998	-89.98383000
3.99999998	-81.01138000
4.03999998	-63.03598000
4.07999998	-49.56206000
4.11999997	-36.08813000
4.15999997	-22.59896000
4.19999997	-9.12503300
4.23999997	8.81984900
4.27999997	17.80755000
4.31999997	31.28147000
4.35999997	40.26917000
4.39999997	49.25687000
4.43999997	58.24457000
4.47999997	67.21701000
4.51999997	71.71850000
4.55999997	80.70620000
4.59999997	85.19241000
4.63999997	89.67863000
4.67999997	103.15250000
4.71999997	107.65400000
4.75999997	116.64170000
4.79999997	125.61420000
4.83999997	125.61420000
4.87999997	134.60190000
4.91999997	143.58960000
4.95999997	143.58960000
4.99999997	143.58960000
5.03999997	143.58960000
5.07999997	139.10340000
5.11999997	134.60190000
5.15999997	125.61420000
5.19999997	112.14030000
5.23999997	103.15250000
5.27999997	89.67863000
5.31999997	71.71850000
5.35999997	62.73079000
5.39999997	44.75539000
5.43999997	31.28147000
5.47999997	17.80755000
5.51999997	4.33362800
5.55999997	-4.63881300
5.59999997	-18.11273000
5.63999997	-27.10044000
5.67999997	-36.08813000
5.71999997	-45.06058000
5.75999996	-54.04828000
5.79999996	-58.54976000
5.83999996	-67.52220000
5.87999996	-72.02368000
5.91999996	-76.50990000
5.95999996	-85.49760000
5.99999996	-89.98383000
6.03999996	-94.48530000
6.07999996	-103.45770000
6.11999996	-107.95920000
6.15999996	-112.44540000
6.19999996	-121.43310000
6.23999996	-125.91940000
6.27999996	-130.42080000
6.31999996	-130.42080000
6.35999996	-130.42080000
6.39999996	-130.42080000
6.43999996	-125.91940000
6.47999996	-121.43310000
6.51999996	-112.44540000
6.55999996	-107.95920000
6.59999996	-94.48530000
6.63999996	-81.01138000
6.67999996	-72.02368000
6.71999996	-54.04828000
6.75999996	-40.57436000
6.79999996	-27.10044000
6.83999996	-9.12503300
6.87999996	-0.15259250
6.91999996	13.32133000
6.95999996	26.79525000
6.99999996	35.78295000
7.03999996	44.75539000
7.07999996	58.24457000
7.11999996	67.21701000
7.15999996	71.71850000
7.19999996	76.20471000
7.23999996	85.19241000
7.27999996	94.18011000
7.31999996	103.15250000
7.35999996	107.65400000
7.39999996	116.64170000
7.43999995	125.61420000
7.47999995	130.11560000
7.51999995	139.10340000
7.55999995	139.10340000
7.59999995	143.58960000
7.63999995	143.58960000
7.67999995	143.58960000
7.71999995	139.10340000
7.75999995	134.60190000
7.79999995	125.61420000
7.83999995	116.64170000
7.87999995	103.15250000
7.91999995	89.67863000
7.95999995	76.20471000
7.99999995	67.21701000
8.03999995	49.25687000
8.07999995	35.78295000
8.11999995	22.29377000
8.15999995	8.81984900
8.19999995	-4.63881300
8.23999995	-18.11273000
8.27999995	-27.10044000
8.31999995	-36.08813000
8.35999995	-40.57436000
8.39999995	-58.54976000
8.43999995	-63.03598000
8.47999995	-63.03598000
8.51999995	-67.52220000
8.55999995	-76.50990000
8.59999995	-85.49760000
8.63999995	-89.98383000
8.67999995	-94.48530000
8.71999995	-103.45770000
8.75999995	-107.95920000
8.79999995	-112.44540000
8.83999995	-116.94690000
8.87999995	-125.91940000
8.91999995	-130.42080000
8.95999995	-130.42080000
8.99999995	-134.90710000
9.03999995	-130.42080000
9.07999994	-130.42080000
9.11999994	-125.91940000
9.15999994	-116.94690000
9.19999994	-107.95920000
9.23999994	-98.97152000
9.27999994	-85.49760000
9.31999994	-72.02368000
9.35999994	-58.54976000
9.39999994	-40.57436000
9.43999994	-31.58666000
9.47999994	-18.11273000
9.51999994	-0.15259250
9.55999994	8.81984900
9.59999994	26.79525000
9.63999994	35.78295000
9.67999994	44.75539000
9.71999994	53.74309000
9.75999994	62.73079000
9.79999994	71.71850000
9.83999994	76.20471000
9.87999994	85.19241000
9.91999994	89.67863000
9.95999994	98.66634000
9.99999994	107.65400000
10.03999994	116.64170000
10.07999994	121.12800000
10.11999994	125.61420000
10.15999994	134.60190000
10.19999994	139.10340000
10.23999994	143.58960000
10.27999994	143.58960000
10.31999994	143.58960000
10.35999994	139.10340000
10.39999994	134.60190000
10.43999994	125.61420000
10.47999994	121.12800000
10.51999994	107.65400000
10.55999994	94.18011000
10.59999994	80.70620000
10.63999994	67.21701000
10.67999994	53.74309000
10.71999993	35.78295000
10.75999993	22.29377000
10.79999993	13.32133000
10.83999993	-0.15259250
10.87999993	-13.62651000
10.91999993	-22.59896000
10.95999993	-31.58666000
10.99999993	-40.57436000
11.03999993	-49.56206000
11.07999993	-58.54976000
11.11999993	-63.03598000
11.15999993	-72.02368000
11.19999993	-76.50990000
11.23999993	-81.01138000
11.27999993	-89.98383000
11.31999993	-94.48530000
11.35999993	-98.97152000
11.39999993	-107.95920000
11.43999993	-112.44540000
11.47999993	-116.94690000
11.51999993	-125.91940000
11.55999993	-125.91940000
11.59999993	-130.42080000
11.63999993	-130.42080000
11.67999993	-130.42080000
11.71999993	-130.42080000
11.75999993	-125.91940000
11.79999993	-116.94690000
11.83999993	-107.95920000
11.87999993	-98.97152000
11.91999993	-89.98383000
11.95999993	-72.02368000
11.99999993	-63.03598000
12.03999993	-45.06058000
12.07999993	-36.08813000
12.11999993	-18.11273000
12.15999993	-4.63881300
12.19999993	8.81984900
12.23999993	17.80755000
12.27999993	31.28147000
12.31999993	40.26917000
12.35999992	53.74309000
12.39999992	58.24457000
12.43999992	71.71850000
12.47999992	76.20471000
12.51999992	85.19241000
12.55999992	89.67863000
12.59999992	98.66634000
12.63999992	107.65400000
12.67999992	116.64170000
12.71999992	121.12800000
12.75999992	125.61420000
12.79999992	134.60190000
12.83999992	139.10340000
12.87999992	143.58960000
12.91999992	143.58960000
12.95999992	143.58960000
12.99999992	143.58960000
13.03999992	139.10340000
13.07999992	130.11560000
13.11999992	121.12800000
13.15999992	107.65400000
13.19999992	98.66634000
13.23999992	85.19241000
13.27999992	71.71850000
13.31999992	58.24457000
13.35999992	35.78295000
13.39999992	31.28147000
13.43999992	17.80755000
13.47999992	4.33362800
13.51999992	-9.12503300
13.55999992	-22.59896000
13.59999992	-27.10044000
13.63999992	-36.08813000
13.67999992	-45.06058000
13.71999992	-54.04828000
13.75999992	-58.54976000
13.79999992	-67.52220000
13.83999992	-72.02368000
13.87999992	-81.01138000
13.91999992	-85.49760000
13.95999992	-94.48530000
13.99999991	-98.97152000
14.03999991	-107.95920000
14.07999991	-112.44540000
14.11999991	-116.94690000
14.15999991	-125.91940000
14.19999991	-125.91940000
14.23999991	-130.42080000
14.27999991	-130.42080000
14.31999991	-130.42080000
14.35999991	-130.42080000
14.39999991	-125.91940000
14.43999991	-116.94690000
14.47999991	-112.44540000
14.51999991	-98.97152000
14.55999991	-89.98383000
14.59999991	-81.01138000
14.63999991	-63.03598000
14.67999991	-54.04828000
14.71999991	-36.08813000
14.75999991	-22.59896000
14.79999991	-9.12503300
14.83999991	4.33362800
14.87999991	17.80755000
14.91999991	31.28147000
14.95999991	40.26917000
14.99999991	49.25687000
15.03999991	58.24457000
15.07999991	67.21701000
15.11999991	71.71850000
15.15999991	80.70620000
15.19999991	89.67863000
15.23999991	94.18011000
15.27999991	103.15250000
15.31999991	112.14030000
15.35999991	121.12800000
15.39999991	125.61420000
15.43999991	134.60190000
15.47999991	139.10340000
15.51999991	143.58960000
15.55999991	143.58960000
15.59999991	143.58960000
15.63999990	143.58960000
15.67999990	139.10340000
15.71999990	130.11560000
15.75999990	121.12800000
15.79999990	112.14030000
15.83999990	98.66634000
15.87999990	85.19241000
15.91999990	71.71850000
15.95999990	58.24457000
15.99999990	44.75539000
16.03999990	31.28147000
16.07999990	17.80755000
16.11999990	4.33362800
16.15999990	-4.63881300
16.19999990	-18.11273000
16.23999990	-27.10044000
16.27999990	-36.08813000
16.31999990	-40.57436000
16.35999990	-54.04828000
16.39999990	-58.54976000
16.43999990	-63.03598000
16.47999990	-72.02368000
16.51999990	-76.50990000
16.55999990	-85.49760000
16.59999990	-89.98383000
16.63999990	-98.97152000
16.67999990	-103.45770000
16.71999990	-107.95920000
16.75999990	-116.94690000
16.79999990	-121.43310000
16.83999990	-130.42080000
16.87999990	-130.42080000
16.91999990	-130.42080000
16.95999990	-130.42080000
16.99999990	-130.42080000
17.03999990	-125.91940000
17.07999990	-121.43310000
17.11999990	-112.44540000
17.15999990	-103.45770000
17.19999990	-94.48530000
17.23999990	-81.01138000
17.27999989	-67.52220000
17.31999989	-54.04828000
17.35999989	-40.57436000
17.39999989	-27.10044000
17.43999989	-9.12503300
17.47999989	-0.15259250
17.51999989	13.32133000
17.55999989	26.79525000
17.59999989	35.78295000
17.63999989	44.75539000
17.67999989	58.24457000
17.71999989	67.21701000
17.75999989	71.71850000
17.79999989	80.70620000
17.83999989	85.19241000
17.87999989	94.18011000
17.91999989	103.15250000
17.95999989	107.65400000
17.99999989	116.64170000
18.03999989	125.61420000
18.07999989	130.11560000
18.11999989	134.60190000
18.15999989	143.58960000
18.19999989	143.58960000
18.23999989	139.10340000
18.27999989	143.58960000
18.31999989	143.58960000
18.35999989	134.60190000
18.39999989	125.61420000
18.43999989	116.64170000
18.47999989	103.15250000
18.51999989	89.67863000
18.55999989	71.71850000
18.59999989	62.73079000
18.63999989	49.25687000
18.67999989	35.78295000
18.71999989	17.80755000
18.75999989	8.81984900
18.79999989	-4.63881300
18.83999989	-18.11273000
18.87999989	-22.59896000
18.91999989	-36.08813000
18.95999988	-40.57436000
18.99999988	-54.04828000
19.03999988	-58.54976000
19.07999988	-63.03598000
19.11999988	-72.02368000
19.15999988	-76.50990000
19.19999988	-85.49760000
19.23999988	-89.98383000
19.27999988	-94.48530000
19.31999988	-103.45770000
19.35999988	-107.95920000
19.39999988	-112.44540000
19.43999988	-116.94690000
19.47999988	-125.91940000
19.51999988	-130.42080000
19.55999988	-130.42080000
19.59999988	-130.42080000
19.63999988	-130.42080000
19.67999988	-125.91940000
19.71999988	-125.91940000
19.75999988	-112.44540000
19.79999988	-107.95920000
19.83999988	-94.48530000
19.87999988	-85.49760000
19.91999988	-72.02368000
19.95999988	-58.54976000
19.99999988	-40.57436000
20.03999988	-27.10044000
20.07999988	-13.62651000
20.11999988	-0.15259250
20.15999988	13.32133000
20.19999988	22.29377000
20.23999988	35.78295000
20.27999988	44.75539000
20.31999988	53.74309000
20.35999988	62.73079000
20.39999988	71.71850000
20.43999988	76.20471000
20.47999988	85.19241000
20.51999988	89.67863000
20.55999988	98.66634000
20.59999987	107.65400000
20.63999987	116.64170000
20.67999987	125.61420000
20.71999987	130.11560000
20.75999987	139.10340000
20.79999987	139.10340000
20.83999987	143.58960000
20.87999987	143.58960000
20.91999987	143.58960000
20.95999987	139.10340000
20.99999987	134.60190000
21.03999987	125.61420000
21.07999987	116.64170000
21.11999987	107.65400000
21.15999987	89.67863000
21.19999987	80.70620000
21.23999987	62.73079000
21.27999987	49.25687000
21.31999987	35.78295000
21.35999987	22.29377000
21.39999987	8.81984900
21.43999987	-4.63881300
21.47999987	-13.62651000
21.51999987	-22.59896000
21.55999987	-31.58666000
21.59999987	-40.57436000
21.63999987	-49.56206000
21.67999987	-54.04828000
21.71999987	-63.03598000
21.75999987	-72.02368000
21.79999987	-76.50990000
21.83999987	-81.01138000
21.87999987	-89.98383000
21.91999987	-94.48530000
21.95999987	-98.97152000
21.99999987	-107.95920000
22.03999987	-112.44540000
22.07999987	-121.43310000
22.11999987	-125.91940000
22.15999987	-130.42080000
22.19999987	-130.42080000
22.23999986	-130.42080000
22.27999986	-130.42080000
22.31999986	-130.42080000
22.35999986	-125.91940000
22.39999986	-116.94690000
22.43999986	-107.95920000
22.47999986	-98.97152000
22.51999986	-85.49760000
22.55999986	-72.02368000
22.59999986	-58.54976000
22.63999986	-45.06058000
22.67999986	-31.58666000
22.71999986	-18.11273000
22.75999986	-4.63881300
22.79999986	8.81984900
22.83999986	17.80755000
22.87999986	31.28147000
22.91999986	44.75539000
22.95999986	49.25687000
22.99999986	58.24457000
23.03999986	67.21701000
23.07999986	71.71850000
23.11999986	85.19241000
23.15999986	85.19241000
23.19999986	89.67863000
23.23999986	107.65400000
23.27999986	121.12800000
23.31999986	121.12800000
23.35999986	125.61420000
23.39999986	130.11560000
23.43999986	139.10340000
23.47999986	143.58960000
23.51999986	143.58960000
23.55999986	143.58960000
23.59999986	143.58960000
23.63999986	139.10340000
23.67999986	125.61420000
23.71999986	121.12800000
23.75999986	112.14030000
23.79999986	94.18011000
23.83999986	80.70620000
23.87999985	71.71850000
23.91999985	53.74309000
23.95999985	40.26917000
23.99999985	26.79525000
24.03999985	13.32133000
24.07999985	-0.15259250
24.11999985	-13.62651000
24.15999985	-22.59896000
24.19999985	-31.58666000
24.23999985	-36.08813000
24.27999985	-45.06058000
24.31999985	-54.04828000
24.35999985	-58.54976000
24.39999985	-67.52220000
24.43999985	-72.02368000
24.47999985	-76.50990000
24.51999985	-85.49760000
24.55999985	-94.48530000
24.59999985	-98.97152000
24.63999985	-107.95920000
24.67999985	-112.44540000
24.71999985	-121.43310000
24.75999985	-125.91940000
24.79999985	-125.91940000
24.83999985	-130.42080000
24.87999985	-130.42080000
24.91999985	-130.42080000
24.95999985	-130.42080000
24.99999985	-125.91940000
25.03999985	-116.94690000
25.07999985	-112.44540000
25.11999985	-103.45770000
25.15999985	-89.98383000
25.19999985	-76.50990000
25.23999985	-63.03598000
25.27999985	-54.04828000
25.31999985	-36.08813000
25.35999985	-18.11273000
25.39999985	-4.63881300
25.43999985	8.81984900
25.47999985	17.80755000
25.51999984	31.28147000
25.55999984	40.26917000
25.59999984	49.25687000
25.63999984	58.24457000
25.67999984	67.21701000
25.71999984	71.71850000
25.75999984	80.70620000
25.79999984	89.67863000
25.83999984	94.18011000
25.87999984	103.15250000
25.91999984	107.65400000
25.95999984	121.12800000
25.99999984	125.61420000
26.03999984	143.58960000
26.07999984	157.06350000
26.11999984	166.05120000
26.15999984	170.53740000
26.19999984	166.05120000
26.23999984	152.57730000
26.27999984	134.60190000
26.31999984	116.64170000
26.35999984	85.19241000
26.39999984	67.21701000
26.43999984	53.74309000
26.47999984	53.74309000
26.51999984	53.74309000
26.55999984	49.25687000
26.59999984	44.75539000
26.63999984	35.78295000
26.67999984	31.28147000
26.71999984	22.29377000
26.75999984	4.33362800
26.79999984	-9.12503300
26.83999984	-18.11273000
26.87999984	-27.10044000
26.91999984	-36.08813000
26.95999984	-45.06058000
26.99999984	-54.04828000
27.03999984	-58.54976000
27.07999984	-63.03598000
27.11999984	-72.02368000
27.15999983	-76.50990000
27.19999983	-89.98383000
27.23999983	-94.48530000
27.27999983	-107.95920000
27.31999983	-116.94690000
27.35999983	-130.42080000
27.39999983	-134.90710000
27.43999983	-139.40860000
27.47999983	-143.89480000
27.51999983	-143.89480000
27.55999983	-139.40860000
27.59999983	-130.42080000
27.63999983	-125.91940000
27.67999983	-112.44540000
27.71999983	-103.45770000
27.75999983	-94.48530000
27.79999983	-85.49760000
27.83999983	-76.50990000
27.87999983	-67.52220000
27.91999983	-54.04828000
27.95999983	-36.08813000
27.99999983	-22.59896000
28.03999983	-9.12503300
28.07999983	-0.15259250
28.11999983	17.80755000
28.15999983	31.28147000
28.19999983	40.26917000
28.23999983	44.75539000
28.27999983	49.25687000
28.31999983	58.24457000
28.35999983	67.21701000
28.39999983	71.71850000
28.43999983	76.20471000
28.47999983	85.19241000
28.51999983	98.66634000
28.55999983	107.65400000
28.59999983	116.64170000
28.63999983	125.61420000
28.67999983	134.60190000
28.71999983	139.10340000
28.75999983	143.58960000
28.79999982	143.58960000
28.83999982	148.07580000
28.87999982	143.58960000
28.91999982	143.58960000
28.95999982	134.60190000
28.99999982	125.61420000
29.03999982	112.14030000
29.07999982	103.15250000
29.11999982	89.67863000
29.15999982	76.20471000
29.19999982	62.73079000
29.23999982	44.75539000
29.27999982	31.28147000
29.31999982	17.80755000
29.35999982	4.33362800
29.39999982	-9.12503300
29.43999982	-18.11273000
29.47999982	-27.10044000
29.51999982	-36.08813000
29.55999982	-45.06058000
29.59999982	-54.04828000
29.63999982	-54.04828000
29.67999982	-58.54976000
29.71999982	-67.52220000
29.75999982	-76.50990000
29.79999982	-81.01138000
29.83999982	-89.98383000
29.87999982	-94.48530000
29.91999982	-103.45770000
29.95999982	-107.95920000
29.99999982	-112.44540000
30.03999982	-121.43310000
30.07999982	-125.91940000
30.11999982	-130.42080000
30.15999982	-130.42080000
30.19999982	-130.42080000
30.23999982	-130.42080000
30.27999982	-130.42080000
30.31999982	-125.91940000
30.35999982	-116.94690000
30.39999982	-107.95920000
30.43999982	-98.97152000
30.47999981	-85.49760000
30.51999981	-72.02368000
30.55999981	-58.54976000
30.59999981	-40.57436000
30.63999981	-27.10044000
30.67999981	-13.62651000
30.71999981	-0.15259250
30.75999981	13.32133000
30.79999981	26.79525000
30.83999981	35.78295000
30.87999981	44.75539000
30.91999981	53.74309000
30.95999981	62.73079000
30.99999981	71.71850000
31.03999981	76.20471000
31.07999981	80.70620000
31.11999981	89.67863000
31.15999981	98.66634000
31.19999981	107.65400000
31.23999981	116.64170000
