Time	Channel A
(us)	(mV)

0.00000000	68.28211000
0.04000000	70.07660000
0.08000000	70.07660000
0.12000000	71.87719000
0.16000000	71.87719000
0.20000000	70.07660000
0.24000000	68.28211000
0.28000000	64.68703000
0.32000000	59.29746000
0.36000000	53.90789000
0.40000000	46.71774000
0.44000000	39.52757000
0.48000000	30.54292000
0.52000000	23.35887000
0.56000000	16.16870000
0.60000000	10.77914000
0.64000000	1.79448800
0.68000000	-1.79448800
0.72000000	-8.98464900
0.76000000	-14.37422000
0.80000000	-17.96930000
0.83999999	-23.35887000
0.87999999	-26.95395000
0.91999999	-28.74844000
0.95999999	-32.34352000
0.99999999	-35.93859000
1.03999999	-37.73308000
1.07999999	-39.52757000
1.11999999	-44.92325000
1.15999999	-57.50298000
1.19999999	-80.86184000
1.23999999	-80.86184000
1.27999999	-66.48762000
1.31999999	-55.70238000
1.35999999	-57.50298000
1.39999999	-53.90789000
1.43999999	-32.34352000
1.47999999	-17.96930000
1.51999999	-25.15336000
1.55999999	-43.12265000
1.59999999	-57.50298000
1.63999999	-59.29746000
1.67999999	-53.90789000
1.71999999	-57.50298000
1.75999999	-64.68703000
1.79999999	-59.29746000
1.83999999	-39.52757000
1.87999999	-25.15336000
1.91999999	-21.55827000
1.95999999	-21.55827000
1.99999999	-14.37422000
2.03999999	0.00000000
2.07999999	10.77914000
2.11999999	14.37422000
2.15999999	16.16870000
2.19999999	21.55827000
2.23999999	28.74844000
2.27999999	35.93859000
2.31999999	35.93859000
2.35999999	39.52757000
2.39999999	46.71774000
2.43999999	55.70238000
2.47999998	64.68703000
2.51999998	70.07660000
2.55999998	71.87719000
2.59999998	70.07660000
2.63999998	70.07660000
2.67999998	70.07660000
2.71999998	64.68703000
2.75999998	61.09195000
2.79999998	59.29746000
2.83999998	61.09195000
2.87999998	62.89254000
2.91999998	62.89254000
2.95999998	59.29746000
2.99999998	55.70238000
3.03999998	50.31281000
3.07999998	43.12265000
3.11999998	32.34352000
3.15999998	21.55827000
3.19999998	14.37422000
3.23999998	8.98464900
3.27999998	3.58897700
3.31999998	0.00000000
3.35999998	-1.79448800
3.39999998	-7.18405700
3.43999998	-8.98464900
3.47999998	-14.37422000
3.51999998	-19.76379000
3.55999998	-25.15336000
3.59999998	-30.54292000
3.63999998	-35.93859000
3.67999998	-39.52757000
3.71999998	-43.12265000
3.75999998	-46.71774000
3.79999998	-50.31281000
3.83999998	-52.10730000
3.87999998	-53.90789000
3.91999998	-57.50298000
3.95999998	-61.09195000
3.99999998	-64.68703000
4.03999998	-64.68703000
4.07999998	-64.68703000
4.11999997	-64.68703000
4.15999997	-64.68703000
4.19999997	-64.68703000
4.23999997	-61.09195000
4.27999997	-59.29746000
4.31999997	-57.50298000
4.35999997	-52.10730000
4.39999997	-43.12265000
4.43999997	-35.93859000
4.47999997	-28.74844000
4.51999997	-21.55827000
4.55999997	-14.37422000
4.59999997	-7.18405700
4.63999997	-3.58897700
4.67999997	1.79448800
4.71999997	7.18405700
4.75999997	14.37422000
4.79999997	19.76379000
4.83999997	14.37422000
4.87999997	26.95395000
4.91999997	37.73308000
4.95999997	43.12265000
4.99999997	39.52757000
5.03999997	41.32816000
5.07999997	46.71774000
5.11999997	52.10730000
5.15999997	50.31281000
5.19999997	57.50298000
5.23999997	61.09195000
5.27999997	64.68703000
5.31999997	68.28211000
5.35999997	71.87719000
5.39999997	73.67168000
5.43999997	71.87719000
5.47999997	71.87719000
5.51999997	70.07660000
5.55999997	64.68703000
5.59999997	61.09195000
5.63999997	53.90789000
5.67999997	48.51222000
5.71999997	41.32816000
5.75999996	32.34352000
5.79999996	26.95395000
5.83999996	17.96930000
5.87999996	12.57363000
5.91999996	5.38956800
5.95999996	-1.79448800
5.99999996	-5.38956800
6.03999996	-10.77914000
6.07999996	-14.37422000
6.11999996	-19.76379000
6.15999996	-23.35887000
6.19999996	-26.95395000
6.23999996	-32.34352000
6.27999996	-34.13800000
6.31999996	-37.73308000
6.35999996	-39.52757000
6.39999996	-43.12265000
6.43999996	-44.92325000
6.47999996	-46.71774000
6.51999996	-50.31281000
6.55999996	-53.90789000
6.59999996	-57.50298000
6.63999996	-59.29746000
6.67999996	-64.68703000
6.71999996	-66.48762000
6.75999996	-66.48762000
6.79999996	-68.28211000
6.83999996	-66.48762000
6.87999996	-64.68703000
6.91999996	-62.89254000
6.95999996	-57.50298000
6.99999996	-52.10730000
7.03999996	-46.71774000
7.07999996	-41.32816000
7.11999996	-32.34352000
7.15999996	-25.15336000
7.19999996	-17.96930000
7.23999996	-10.77914000
7.27999996	-3.58897700
7.31999996	3.58897700
7.35999996	8.98464900
7.39999996	14.37422000
7.43999995	21.55827000
7.47999995	25.15336000
7.51999995	28.74844000
7.55999995	32.34352000
7.59999995	35.93859000
7.63999995	37.73308000
7.67999995	41.32816000
7.71999995	44.92325000
7.75999995	48.51222000
7.79999995	52.10730000
7.83999995	53.90789000
7.87999995	59.29746000
7.91999995	62.89254000
7.95999995	66.48762000
7.99999995	70.07660000
8.03999995	71.87719000
8.07999995	71.87719000
8.11999995	71.87719000
8.15999995	70.07660000
8.19999995	66.48762000
8.23999995	62.89254000
8.27999995	57.50298000
8.31999995	50.31281000
8.35999995	43.12265000
8.39999995	35.93859000
8.43999995	28.74844000
8.47999995	21.55827000
8.51999995	14.37422000
8.55999995	7.18405700
8.59999995	0.00000000
8.63999995	-7.18405700
8.67999995	-12.57363000
8.71999995	-16.16870000
8.75999995	-21.55827000
8.79999995	-25.15336000
8.83999995	-28.74844000
8.87999995	-30.54292000
8.91999995	-34.13800000
8.95999995	-35.93859000
8.99999995	-37.73308000
9.03999995	-41.32816000
9.07999994	-43.12265000
9.11999994	-46.71774000
9.15999994	-50.31281000
9.19999994	-52.10730000
9.23999994	-55.70238000
9.27999994	-59.29746000
9.31999994	-61.09195000
9.35999994	-64.68703000
9.39999994	-64.68703000
9.43999994	-66.48762000
9.47999994	-66.48762000
9.51999994	-64.68703000
9.55999994	-62.89254000
9.59999994	-59.29746000
9.63999994	-53.90789000
9.67999994	-50.31281000
9.71999994	-48.51222000
9.75999994	-39.52757000
9.79999994	-26.95395000
9.83999994	-19.76379000
9.87999994	-14.37422000
9.91999994	-7.18405700
9.95999994	0.00000000
9.99999994	8.98464900
10.03999994	14.37422000
10.07999994	21.55827000
10.11999994	25.15336000
10.15999994	28.74844000
10.19999994	32.34352000
10.23999994	35.93859000
10.27999994	37.73308000
10.31999994	39.52757000
10.35999994	43.12265000
10.39999994	48.51222000
10.43999994	50.31281000
10.47999994	55.70238000
10.51999994	57.50298000
10.55999994	61.09195000
10.59999994	66.48762000
10.63999994	68.28211000
10.67999994	70.07660000
10.71999993	71.87719000
10.75999993	70.07660000
10.79999993	70.07660000
10.83999993	66.48762000
10.87999993	62.89254000
10.91999993	57.50298000
10.95999993	52.10730000
10.99999993	44.92325000
11.03999993	39.52757000
11.07999993	30.54292000
11.11999993	25.15336000
11.15999993	16.16870000
11.19999993	7.18405700
11.23999993	1.79448800
11.27999993	-5.38956800
11.31999993	-8.98464900
11.35999993	-14.37422000
11.39999993	-21.55827000
11.43999993	-25.15336000
11.47999993	-28.74844000
11.51999993	-30.54292000
11.55999993	-34.13800000
11.59999993	-37.73308000
11.63999993	-39.52757000
11.67999993	-43.12265000
11.71999993	-43.12265000
11.75999993	-46.71774000
11.79999993	-50.31281000
11.83999993	-52.10730000
11.87999993	-55.70238000
11.91999993	-59.29746000
11.95999993	-61.09195000
11.99999993	-62.89254000
12.03999993	-64.68703000
12.07999993	-64.68703000
12.11999993	-64.68703000
12.15999993	-64.68703000
12.19999993	-62.89254000
12.23999993	-59.29746000
12.27999993	-55.70238000
12.31999993	-50.31281000
12.35999992	-44.92325000
12.39999992	-37.73308000
12.43999992	-30.54292000
12.47999992	-23.35887000
12.51999992	-16.16870000
12.55999992	-7.18405700
12.59999992	-1.79448800
12.63999992	5.38956800
12.67999992	12.57363000
12.71999992	17.96930000
12.75999992	23.35887000
12.79999992	28.74844000
12.83999992	32.34352000
12.87999992	35.93859000
12.91999992	37.73308000
12.95999992	41.32816000
12.99999992	44.92325000
13.03999992	48.51222000
13.07999992	52.10730000
13.11999992	55.70238000
13.15999992	57.50298000
13.19999992	62.89254000
13.23999992	64.68703000
13.27999992	68.28211000
13.31999992	70.07660000
13.35999992	71.87719000
13.39999992	70.07660000
13.43999992	70.07660000
13.47999992	66.48762000
13.51999992	62.89254000
13.55999992	57.50298000
13.59999992	52.10730000
13.63999992	46.71774000
13.67999992	39.52757000
13.71999992	32.34352000
13.75999992	25.15336000
13.79999992	17.96930000
13.83999992	10.77914000
13.87999992	3.58897700
13.91999992	-3.58897700
13.95999992	-7.18405700
13.99999991	-14.37422000
14.03999991	-17.96930000
14.07999991	-23.35887000
14.11999991	-26.95395000
14.15999991	-30.54292000
14.19999991	-32.34352000
14.23999991	-35.93859000
14.27999991	-37.73308000
14.31999991	-41.32816000
14.35999991	-44.92325000
14.39999991	-46.71774000
14.43999991	-50.31281000
14.47999991	-52.10730000
14.51999991	-55.70238000
14.55999991	-57.50298000
14.59999991	-61.09195000
14.63999991	-61.09195000
14.67999991	-68.28211000
14.71999991	-71.87719000
14.75999991	-62.89254000
14.79999991	-57.50298000
14.83999991	-62.89254000
14.87999991	-61.09195000
14.91999991	-57.50298000
14.95999991	-48.51222000
14.99999991	-44.92325000
15.03999991	-39.52757000
15.07999991	-30.54292000
15.11999991	-23.35887000
15.15999991	-16.16870000
15.19999991	-8.98464900
15.23999991	-1.79448800
15.27999991	3.58897700
15.31999991	10.77914000
15.35999991	16.16870000
15.39999991	21.55827000
15.43999991	26.95395000
15.47999991	28.74844000
15.51999991	35.93859000
15.55999991	37.73308000
15.59999991	39.52757000
15.63999990	44.92325000
15.67999990	46.71774000
15.71999990	50.31281000
15.75999990	53.90789000
15.79999990	57.50298000
15.83999990	62.89254000
15.87999990	64.68703000
15.91999990	68.28211000
15.95999990	70.07660000
15.99999990	71.87719000
16.03999990	71.87719000
16.07999990	70.07660000
16.11999990	68.28211000
16.15999990	64.68703000
16.19999990	59.29746000
16.23999990	53.90789000
16.27999990	48.51222000
16.31999990	41.32816000
16.35999990	32.34352000
16.39999990	25.15336000
16.43999990	17.96930000
16.47999990	10.77914000
16.51999990	3.58897700
16.55999990	-1.79448800
16.59999990	-7.18405700
16.63999990	-12.57363000
16.67999990	-16.16870000
16.71999990	-21.55827000
16.75999990	-25.15336000
16.79999990	-28.74844000
16.83999990	-30.54292000
16.87999990	-34.13800000
16.91999990	-37.73308000
16.95999990	-39.52757000
16.99999990	-43.12265000
17.03999990	-46.71774000
17.07999990	-50.31281000
17.11999990	-52.10730000
17.15999990	-55.70238000
17.19999990	-57.50298000
17.23999990	-61.09195000
17.27999989	-64.68703000
17.31999989	-64.68703000
17.35999989	-64.68703000
17.39999989	-66.48762000
17.43999989	-64.68703000
17.47999989	-64.68703000
17.51999989	-61.09195000
17.55999989	-57.50298000
17.59999989	-52.10730000
17.63999989	-44.92325000
17.67999989	-39.52757000
17.71999989	-32.34352000
17.75999989	-25.15336000
17.79999989	-17.96930000
17.83999989	-10.77914000
17.87999989	-3.58897700
17.91999989	3.58897700
17.95999989	10.77914000
17.99999989	16.16870000
18.03999989	19.76379000
18.07999989	25.15336000
18.11999989	28.74844000
18.15999989	32.34352000
18.19999989	35.93859000
18.23999989	39.52757000
18.27999989	43.12265000
18.31999989	46.71774000
18.35999989	50.31281000
18.39999989	52.10730000
18.43999989	57.50298000
18.47999989	62.89254000
18.51999989	64.68703000
18.55999989	68.28211000
18.59999989	70.07660000
18.63999989	71.87719000
18.67999989	71.87719000
18.71999989	71.87719000
18.75999989	70.07660000
18.79999989	64.68703000
18.83999989	59.29746000
18.87999989	55.70238000
18.91999989	50.31281000
18.95999988	41.32816000
18.99999988	34.13800000
19.03999988	26.95395000
19.07999988	19.76379000
19.11999988	12.57363000
19.15999988	5.38956800
19.19999988	-1.79448800
19.23999988	-7.18405700
19.27999988	-10.77914000
19.31999988	-16.16870000
19.35999988	-21.55827000
19.39999988	-25.15336000
19.43999988	-28.74844000
19.47999988	-30.54292000
19.51999988	-34.13800000
19.55999988	-37.73308000
19.59999988	-39.52757000
19.63999988	-43.12265000
19.67999988	-44.92325000
19.71999988	-48.51222000
19.75999988	-52.10730000
19.79999988	-55.70238000
19.83999988	-57.50298000
19.87999988	-61.09195000
19.91999988	-62.89254000
19.95999988	-64.68703000
19.99999988	-64.68703000
20.03999988	-66.48762000
20.07999988	-66.48762000
20.11999988	-64.68703000
20.15999988	-61.09195000
20.19999988	-57.50298000
20.23999988	-53.90789000
20.27999988	-46.71774000
20.31999988	-41.32816000
20.35999988	-34.13800000
20.39999988	-26.95395000
20.43999988	-17.96930000
20.47999988	-12.57363000
20.51999988	-3.58897700
20.55999988	1.79448800
20.59999987	8.98464900
20.63999987	14.37422000
20.67999987	21.55827000
20.71999987	23.35887000
20.75999987	30.54292000
20.79999987	32.34352000
20.83999987	35.93859000
20.87999987	37.73308000
20.91999987	41.32816000
20.95999987	46.71774000
20.99999987	50.31281000
21.03999987	52.10730000
21.07999987	55.70238000
21.11999987	59.29746000
21.15999987	64.68703000
21.19999987	64.68703000
21.23999987	70.07660000
21.27999987	71.87719000
21.31999987	71.87719000
21.35999987	71.87719000
21.39999987	70.07660000
21.43999987	64.68703000
21.47999987	61.09195000
21.51999987	55.70238000
21.55999987	50.31281000
21.59999987	43.12265000
21.63999987	35.93859000
21.67999987	28.74844000
21.71999987	21.55827000
21.75999987	14.37422000
21.79999987	7.18405700
21.83999987	0.00000000
21.87999987	-5.38956800
21.91999987	-10.77914000
21.95999987	-14.37422000
21.99999987	-19.76379000
22.03999987	-23.35887000
22.07999987	-28.74844000
22.11999987	-30.54292000
22.15999987	-34.13800000
22.19999987	-35.93859000
22.23999986	-39.52757000
22.27999986	-41.32816000
22.31999986	-44.92325000
22.35999986	-48.51222000
22.39999986	-50.31281000
22.43999986	-53.90789000
22.47999986	-57.50298000
22.51999986	-59.29746000
22.55999986	-62.89254000
22.59999986	-64.68703000
22.63999986	-64.68703000
22.67999986	-64.68703000
22.71999986	-66.48762000
22.75999986	-64.68703000
22.79999986	-62.89254000
22.83999986	-59.29746000
22.87999986	-53.90789000
22.91999986	-48.51222000
22.95999986	-43.12265000
22.99999986	-35.93859000
23.03999986	-28.74844000
23.07999986	-21.55827000
23.11999986	-14.37422000
23.15999986	-7.18405700
23.19999986	0.00000000
23.23999986	7.18405700
23.27999986	14.37422000
23.31999986	19.76379000
23.35999986	23.35887000
23.39999986	28.74844000
23.43999986	32.34352000
23.47999986	35.93859000
23.51999986	37.73308000
23.55999986	41.32816000
23.59999986	43.12265000
23.63999986	46.71774000
23.67999986	52.10730000
23.71999986	55.70238000
23.75999986	59.29746000
23.79999986	62.89254000
23.83999986	66.48762000
23.87999985	70.07660000
23.91999985	71.87719000
23.95999985	71.87719000
23.99999985	71.87719000
24.03999985	70.07660000
24.07999985	66.48762000
24.11999985	62.89254000
24.15999985	57.50298000
24.19999985	52.10730000
24.23999985	44.92325000
24.27999985	37.73308000
24.31999985	30.54292000
24.35999985	23.35887000
24.39999985	16.16870000
24.43999985	8.98464900
24.47999985	0.00000000
24.51999985	-7.18405700
24.55999985	-8.98464900
24.59999985	-12.57363000
24.63999985	-19.76379000
24.67999985	-23.35887000
24.71999985	-26.95395000
24.75999985	-30.54292000
24.79999985	-32.34352000
24.83999985	-35.93859000
24.87999985	-37.73308000
24.91999985	-39.52757000
24.95999985	-43.12265000
24.99999985	-44.92325000
25.03999985	-50.31281000
25.07999985	-52.10730000
25.11999985	-57.50298000
25.15999985	-59.29746000
25.19999985	-61.09195000
25.23999985	-64.68703000
25.27999985	-64.68703000
25.31999985	-66.48762000
25.35999985	-66.48762000
25.39999985	-64.68703000
25.43999985	-62.89254000
25.47999985	-59.29746000
25.51999984	-55.70238000
25.55999984	-50.31281000
25.59999984	-43.12265000
25.63999984	-37.73308000
25.67999984	-28.74844000
25.71999984	-21.55827000
25.75999984	-14.37422000
25.79999984	-7.18405700
25.83999984	0.00000000
25.87999984	7.18405700
25.91999984	12.57363000
25.95999984	17.96930000
25.99999984	21.55827000
26.03999984	26.95395000
26.07999984	30.54292000
26.11999984	35.93859000
26.15999984	35.93859000
26.19999984	39.52757000
26.23999984	43.12265000
26.27999984	46.71774000
26.31999984	50.31281000
26.35999984	55.70238000
26.39999984	57.50298000
26.43999984	62.89254000
26.47999984	64.68703000
26.51999984	70.07660000
26.55999984	71.87719000
26.59999984	71.87719000
26.63999984	71.87719000
26.67999984	71.87719000
26.71999984	68.28211000
26.75999984	64.68703000
26.79999984	59.29746000
26.83999984	53.90789000
26.87999984	46.71774000
26.91999984	39.52757000
26.95999984	30.54292000
26.99999984	25.15336000
27.03999984	17.96930000
27.07999984	10.77914000
27.11999984	3.58897700
27.15999983	-3.58897700
27.19999983	-8.98464900
27.23999983	-14.37422000
27.27999983	-17.96930000
27.31999983	-23.35887000
27.35999983	-26.95395000
27.39999983	-28.74844000
27.43999983	-32.34352000
27.47999983	-35.93859000
27.51999983	-37.73308000
27.55999983	-39.52757000
27.59999983	-43.12265000
27.63999983	-44.92325000
27.67999983	-48.51222000
27.71999983	-52.10730000
27.75999983	-55.70238000
27.79999983	-57.50298000
27.83999983	-61.09195000
27.87999983	-64.68703000
27.91999983	-64.68703000
27.95999983	-66.48762000
27.99999983	-66.48762000
28.03999983	-64.68703000
28.07999983	-62.89254000
28.11999983	-61.09195000
28.15999983	-55.70238000
28.19999983	-50.31281000
28.23999983	-44.92325000
28.27999983	-37.73308000
28.31999983	-32.34352000
28.35999983	-23.35887000
28.39999983	-16.16870000
28.43999983	-8.98464900
28.47999983	-1.79448800
28.51999983	5.38956800
28.55999983	12.57363000
28.59999983	17.96930000
28.63999983	21.55827000
28.67999983	28.74844000
28.71999983	30.54292000
28.75999983	35.93859000
28.79999982	35.93859000
28.83999982	39.52757000
28.87999982	44.92325000
28.91999982	46.71774000
28.95999982	50.31281000
28.99999982	53.90789000
29.03999982	57.50298000
29.07999982	61.09195000
29.11999982	64.68703000
29.15999982	68.28211000
29.19999982	70.07660000
29.23999982	71.87719000
29.27999982	71.87719000
29.31999982	71.87719000
29.35999982	68.28211000
29.39999982	66.48762000
29.43999982	57.50298000
29.47999982	50.31281000
29.51999982	50.31281000
29.55999982	46.71774000
29.59999982	34.13800000
29.63999982	25.15336000
29.67999982	17.96930000
29.71999982	14.37422000
29.75999982	5.38956800
29.79999982	-1.79448800
29.83999982	-7.18405700
29.87999982	-12.57363000
29.91999982	-16.16870000
29.95999982	-21.55827000
29.99999982	-25.15336000
30.03999982	-28.74844000
30.07999982	-32.34352000
30.11999982	-35.93859000
30.15999982	-37.73308000
30.19999982	-39.52757000
30.23999982	-43.12265000
30.27999982	-44.92325000
30.31999982	-48.51222000
30.35999982	-52.10730000
30.39999982	-55.70238000
30.43999982	-57.50298000
30.47999981	-59.29746000
30.51999981	-62.89254000
30.55999981	-64.68703000
30.59999981	-64.68703000
30.63999981	-66.48762000
30.67999981	-64.68703000
30.71999981	-62.89254000
30.75999981	-59.29746000
30.79999981	-55.70238000
30.83999981	-52.10730000
30.87999981	-44.92325000
30.91999981	-41.32816000
30.95999981	-32.34352000
30.99999981	-25.15336000
31.03999981	-17.96930000
31.07999981	-10.77914000
31.11999981	-3.58897700
31.15999981	3.58897700
31.19999981	10.77914000
31.23999981	14.37422000
31.27999981	21.55827000
31.31999981	26.95395000
31.35999981	30.54292000
31.39999981	34.13800000
31.43999981	35.93859000
31.47999981	39.52757000
31.51999981	43.12265000
31.55999981	46.71774000
31.59999981	50.31281000
31.63999981	53.90789000
31.67999981	57.50298000
31.71999981	62.89254000
31.75999981	64.68703000
