Time	Channel A
(us)	(mV)

0.00000000	28.74844000
0.04000000	16.16870000
0.08000000	0.00000000
0.12000000	-16.16870000
0.16000000	-30.54292000
0.20000000	-48.51222000
0.24000000	-64.68703000
0.28000000	-79.06125000
0.32000000	-91.64098000
0.36000000	-95.23605000
0.40000000	-89.84650000
0.44000000	-68.28211000
0.48000000	-52.10730000
0.52000000	-41.32816000
0.56000000	-37.73308000
0.60000000	-32.34352000
0.64000000	-32.34352000
0.68000000	-34.13800000
0.72000000	-37.73308000
0.76000000	-39.52757000
0.80000000	-43.12265000
0.83999999	-46.71774000
0.87999999	-53.90789000
0.91999999	-53.90789000
0.95999999	-53.90789000
0.99999999	-50.31281000
1.03999999	-43.12265000
1.07999999	-32.34352000
1.11999999	-25.15336000
1.15999999	-19.76379000
1.19999999	-17.96930000
1.23999999	-16.16870000
1.27999999	-14.37422000
1.31999999	-10.77914000
1.35999999	-7.18405700
1.39999999	-1.79448800
1.43999999	5.38956800
1.47999999	12.57363000
1.51999999	23.35887000
1.55999999	35.93859000
1.59999999	46.71774000
1.63999999	57.50298000
1.67999999	66.48762000
1.71999999	73.67168000
1.75999999	80.86184000
1.79999999	89.84650000
1.83999999	82.65633000
1.87999999	77.26676000
1.91999999	64.68703000
1.95999999	61.09195000
1.99999999	61.09195000
2.03999999	57.50298000
2.07999999	52.10730000
2.11999999	52.10730000
2.15999999	50.31281000
2.19999999	50.31281000
2.23999999	48.51222000
2.27999999	48.51222000
2.31999999	44.92325000
2.35999999	43.12265000
2.39999999	35.93859000
2.43999999	26.95395000
2.47999998	14.37422000
2.51999998	-3.58897700
2.55999998	-17.96930000
2.59999998	-32.34352000
2.63999998	-44.92325000
2.67999998	-57.50298000
2.71999998	-73.67168000
2.75999998	-82.65633000
2.79999998	-82.65633000
2.83999998	-77.26676000
2.87999998	-57.50298000
2.91999998	-43.12265000
2.95999998	-34.13800000
2.99999998	-28.74844000
3.03999998	-28.74844000
3.07999998	-32.34352000
3.11999998	-34.13800000
3.15999998	-35.93859000
3.19999998	-39.52757000
3.23999998	-43.12265000
3.27999998	-50.31281000
3.31999998	-52.10730000
3.35999998	-55.70238000
3.39999998	-53.90789000
3.43999998	-50.31281000
3.47999998	-41.32816000
3.51999998	-30.54292000
3.55999998	-23.35887000
3.59999998	-17.96930000
3.63999998	-16.16870000
3.67999998	-14.37422000
3.71999998	-12.57363000
3.75999998	-12.57363000
3.79999998	-10.77914000
3.83999998	-5.38956800
3.87999998	0.00000000
3.91999998	7.18405700
3.95999998	17.96930000
3.99999998	30.54292000
4.03999998	43.12265000
4.07999998	55.70238000
4.11999997	68.28211000
4.15999997	79.06125000
4.19999997	88.04590000
4.23999997	97.03055000
4.27999997	88.04590000
4.31999997	71.87719000
4.35999997	61.09195000
4.39999997	64.68703000
4.43999997	59.29746000
4.47999997	53.90789000
4.51999997	52.10730000
4.55999997	52.10730000
4.59999997	52.10730000
4.63999997	50.31281000
4.67999997	52.10730000
4.71999997	53.90789000
4.75999997	50.31281000
4.79999997	50.31281000
4.83999997	46.71774000
4.87999997	34.13800000
4.91999997	17.96930000
4.95999997	1.79448800
4.99999997	-14.37422000
5.03999997	-28.74844000
5.07999997	-46.71774000
5.11999997	-62.89254000
5.15999997	-75.47227000
5.19999997	-88.04590000
5.23999997	-89.84650000
5.27999997	-82.65633000
5.31999997	-61.09195000
5.35999997	-46.71774000
5.39999997	-39.52757000
5.43999997	-35.93859000
5.47999997	-34.13800000
5.51999997	-35.93859000
5.55999997	-39.52757000
5.59999997	-39.52757000
5.63999997	-41.32816000
5.67999997	-44.92325000
5.71999997	-50.31281000
5.75999996	-52.10730000
5.79999996	-53.90789000
5.83999996	-53.90789000
5.87999996	-52.10730000
5.91999996	-41.32816000
5.95999996	-34.13800000
5.99999996	-25.15336000
6.03999996	-19.76379000
6.07999996	-14.37422000
6.11999996	-10.77914000
6.15999996	-12.57363000
6.19999996	-8.98464900
6.23999996	-5.38956800
6.27999996	-1.79448800
6.31999996	3.58897700
6.35999996	10.77914000
6.39999996	21.55827000
6.43999996	30.54292000
6.47999996	41.32816000
6.51999996	52.10730000
6.55999996	61.09195000
6.59999996	68.28211000
6.63999996	73.67168000
6.67999996	80.86184000
6.71999996	84.45692000
6.75999996	79.06125000
6.79999996	66.48762000
6.83999996	62.89254000
6.87999996	62.89254000
6.91999996	57.50298000
6.95999996	53.90789000
6.99999996	53.90789000
7.03999996	52.10730000
7.07999996	50.31281000
7.11999996	50.31281000
7.15999996	50.31281000
7.19999996	48.51222000
7.23999996	44.92325000
7.27999996	39.52757000
7.31999996	32.34352000
7.35999996	19.76379000
7.39999996	3.58897700
7.43999995	-8.98464900
7.47999995	-23.35887000
7.51999995	-50.31281000
7.55999995	-64.68703000
7.59999995	-66.48762000
7.63999995	-77.26676000
7.67999995	-97.03055000
7.71999995	-86.25141000
7.75999995	-68.28211000
7.79999995	-44.92325000
7.83999995	-44.92325000
7.87999995	-50.31281000
7.91999995	-68.28211000
7.95999995	-61.09195000
7.99999995	-50.31281000
8.03999995	-39.52757000
8.07999995	-34.13800000
8.11999995	-28.74844000
8.15999995	-14.37422000
8.19999995	0.00000000
8.23999995	0.00000000
8.27999995	-21.55827000
8.31999995	-39.52757000
8.35999995	-35.93859000
8.39999995	-30.54292000
8.43999995	-34.13800000
8.47999995	-43.12265000
8.51999995	-41.32816000
8.55999995	-28.74844000
8.59999995	-17.96930000
8.63999995	-19.76379000
8.67999995	-21.55827000
8.71999995	-21.55827000
8.75999995	-10.77914000
8.79999995	0.00000000
8.83999995	10.77914000
8.87999995	19.76379000
8.91999995	32.34352000
8.95999995	50.31281000
8.99999995	66.48762000
9.03999995	77.26676000
9.07999994	88.04590000
9.11999994	100.62560000
9.15999994	97.03055000
9.19999994	93.44157000
9.23999994	86.25141000
9.27999994	75.47227000
9.31999994	64.68703000
9.35999994	59.29746000
9.39999994	52.10730000
9.43999994	44.92325000
9.47999994	39.52757000
9.51999994	35.93859000
9.55999994	41.32816000
9.59999994	44.92325000
9.63999994	48.51222000
9.67999994	48.51222000
9.71999994	48.51222000
9.75999994	37.73308000
9.79999994	25.15336000
9.83999994	7.18405700
9.87999994	-12.57363000
9.91999994	-28.74844000
9.95999994	-44.92325000
9.99999994	-57.50298000
10.03999994	-70.07660000
10.07999994	-82.65633000
10.11999994	-80.86184000
10.15999994	-71.87719000
10.19999994	-55.70238000
10.23999994	-41.32816000
10.27999994	-34.13800000
10.31999994	-30.54292000
10.35999994	-30.54292000
10.39999994	-34.13800000
10.43999994	-37.73308000
10.47999994	-39.52757000
10.51999994	-43.12265000
10.55999994	-44.92325000
10.59999994	-48.51222000
10.63999994	-50.31281000
10.67999994	-55.70238000
10.71999993	-53.90789000
10.75999993	-48.51222000
10.79999993	-39.52757000
10.83999993	-30.54292000
10.87999993	-21.55827000
10.91999993	-14.37422000
10.95999993	-14.37422000
10.99999993	-12.57363000
11.03999993	-14.37422000
11.07999993	-10.77914000
11.11999993	-12.57363000
11.15999993	-7.18405700
11.19999993	-3.58897700
11.23999993	7.18405700
11.27999993	14.37422000
11.31999993	26.95395000
11.35999993	37.73308000
11.39999993	50.31281000
11.43999993	62.89254000
11.47999993	75.47227000
11.51999993	84.45692000
11.55999993	93.44157000
11.59999993	86.25141000
11.63999993	75.47227000
11.67999993	66.48762000
11.71999993	70.07660000
11.75999993	62.89254000
11.79999993	57.50298000
11.83999993	55.70238000
11.87999993	55.70238000
11.91999993	50.31281000
11.95999993	50.31281000
11.99999993	52.10730000
12.03999993	53.90789000
12.07999993	52.10730000
12.11999993	50.31281000
12.15999993	43.12265000
12.19999993	32.34352000
12.23999993	16.16870000
12.27999993	0.00000000
12.31999993	-17.96930000
12.35999992	-34.13800000
12.39999992	-55.70238000
12.43999992	-66.48762000
12.47999992	-82.65633000
12.51999992	-88.04590000
12.55999992	-95.23605000
12.59999992	-88.04590000
12.63999992	-77.26676000
12.67999992	-55.70238000
12.71999992	-43.12265000
12.75999992	-30.54292000
12.79999992	-28.74844000
12.83999992	-28.74844000
12.87999992	-30.54292000
12.91999992	-35.93859000
12.95999992	-37.73308000
12.99999992	-43.12265000
13.03999992	-44.92325000
13.07999992	-53.90789000
13.11999992	-53.90789000
13.15999992	-53.90789000
13.19999992	-50.31281000
13.23999992	-41.32816000
13.27999992	-35.93859000
13.31999992	-28.74844000
13.35999992	-23.35887000
13.39999992	-17.96930000
13.43999992	-17.96930000
13.47999992	-14.37422000
13.51999992	-10.77914000
13.55999992	-8.98464900
13.59999992	-3.58897700
13.63999992	1.79448800
13.67999992	8.98464900
13.71999992	19.76379000
13.75999992	28.74844000
13.79999992	41.32816000
13.83999992	53.90789000
13.87999992	64.68703000
13.91999992	73.67168000
13.95999992	82.65633000
13.99999991	93.44157000
14.03999991	84.45692000
14.07999991	77.26676000
14.11999991	62.89254000
14.15999991	62.89254000
14.19999991	59.29746000
14.23999991	55.70238000
14.27999991	53.90789000
14.31999991	53.90789000
14.35999991	53.90789000
14.39999991	48.51222000
14.43999991	44.92325000
14.47999991	46.71774000
14.51999991	48.51222000
14.55999991	44.92325000
14.59999991	37.73308000
14.63999991	26.95395000
14.67999991	12.57363000
14.71999991	-3.58897700
14.75999991	-19.76379000
14.79999991	-35.93859000
14.83999991	-50.31281000
14.87999991	-64.68703000
14.91999991	-75.47227000
14.95999991	-88.04590000
14.99999991	-97.03055000
15.03999991	-82.65633000
15.07999991	-62.89254000
15.11999991	-39.52757000
15.15999991	-35.93859000
15.19999991	-28.74844000
15.23999991	-32.34352000
15.27999991	-28.74844000
15.31999991	-35.93859000
15.35999991	-35.93859000
15.39999991	-39.52757000
15.43999991	-43.12265000
15.47999991	-50.31281000
15.51999991	-52.10730000
15.55999991	-55.70238000
15.59999991	-57.50298000
15.63999990	-50.31281000
15.67999990	-43.12265000
15.71999990	-34.13800000
15.75999990	-25.15336000
15.79999990	-21.55827000
15.83999990	-19.76379000
15.87999990	-16.16870000
15.91999990	-16.16870000
15.95999990	-14.37422000
15.99999990	-14.37422000
16.03999990	-8.98464900
16.07999990	-3.58897700
16.11999990	5.38956800
16.15999990	16.16870000
16.19999990	28.74844000
16.23999990	43.12265000
16.27999990	57.50298000
16.31999990	70.07660000
16.35999990	79.06125000
16.39999990	89.84650000
16.43999990	98.83114000
16.47999990	86.25141000
16.51999990	71.87719000
16.55999990	64.68703000
16.59999990	64.68703000
16.63999990	57.50298000
16.67999990	55.70238000
16.71999990	52.10730000
16.75999990	50.31281000
16.79999990	50.31281000
16.83999990	50.31281000
16.87999990	50.31281000
16.91999990	52.10730000
16.95999990	50.31281000
16.99999990	48.51222000
17.03999990	43.12265000
17.07999990	32.34352000
17.11999990	16.16870000
17.15999990	0.00000000
17.19999990	-16.16870000
17.23999990	-32.34352000
17.27999989	-48.51222000
17.31999989	-59.29746000
17.35999989	-80.86184000
17.39999989	-98.83114000
17.43999989	-89.84650000
17.47999989	-70.07660000
17.51999989	-52.10730000
17.55999989	-43.12265000
17.59999989	-37.73308000
17.63999989	-32.34352000
17.67999989	-28.74844000
17.71999989	-35.93859000
17.75999989	-37.73308000
17.79999989	-39.52757000
17.83999989	-43.12265000
17.87999989	-44.92325000
17.91999989	-50.31281000
17.95999989	-53.90789000
17.99999989	-57.50298000
18.03999989	-57.50298000
18.07999989	-46.71774000
18.11999989	-37.73308000
18.15999989	-28.74844000
18.19999989	-23.35887000
18.23999989	-17.96930000
18.27999989	-16.16870000
18.31999989	-16.16870000
18.35999989	-14.37422000
18.39999989	-12.57363000
18.43999989	-8.98464900
18.47999989	-7.18405700
18.51999989	0.00000000
18.55999989	7.18405700
18.59999989	17.96930000
18.63999989	30.54292000
18.67999989	43.12265000
18.71999989	55.70238000
18.75999989	66.48762000
18.79999989	73.67168000
18.83999989	79.06125000
18.87999989	88.04590000
18.91999989	84.45692000
18.95999988	79.06125000
18.99999988	64.68703000
19.03999988	61.09195000
19.07999988	61.09195000
19.11999988	55.70238000
19.15999988	52.10730000
19.19999988	52.10730000
19.23999988	50.31281000
19.27999988	53.90789000
19.31999988	50.31281000
19.35999988	50.31281000
19.39999988	50.31281000
19.43999988	46.71774000
19.47999988	39.52757000
19.51999988	32.34352000
19.55999988	19.76379000
19.59999988	3.58897700
19.63999988	-14.37422000
19.67999988	-28.74844000
19.71999988	-44.92325000
19.75999988	-59.29746000
19.79999988	-73.67168000
19.83999988	-86.25141000
19.87999988	-102.42620000
19.91999988	-86.25141000
19.95999988	-62.89254000
19.99999988	-39.52757000
20.03999988	-32.34352000
20.07999988	-26.95395000
20.11999988	-25.15336000
20.15999988	-25.15336000
20.19999988	-34.13800000
20.23999988	-37.73308000
20.27999988	-43.12265000
20.31999988	-43.12265000
20.35999988	-48.51222000
20.39999988	-52.10730000
20.43999988	-53.90789000
20.47999988	-53.90789000
20.51999988	-50.31281000
20.55999988	-41.32816000
20.59999987	-30.54292000
20.63999987	-21.55827000
20.67999987	-16.16870000
20.71999987	-14.37422000
20.75999987	-12.57363000
20.79999987	-12.57363000
20.83999987	-12.57363000
20.87999987	-8.98464900
20.91999987	-7.18405700
20.95999987	0.00000000
20.99999987	7.18405700
21.03999987	17.96930000
21.07999987	32.34352000
21.11999987	44.92325000
21.15999987	57.50298000
21.19999987	70.07660000
21.23999987	80.86184000
21.27999987	89.84650000
21.31999987	93.44157000
21.35999987	84.45692000
21.39999987	73.67168000
21.43999987	64.68703000
21.47999987	64.68703000
21.51999987	59.29746000
21.55999987	53.90789000
21.59999987	53.90789000
21.63999987	52.10730000
21.67999987	50.31281000
21.71999987	50.31281000
21.75999987	52.10730000
21.79999987	53.90789000
21.83999987	52.10730000
21.87999987	50.31281000
21.91999987	44.92325000
21.95999987	34.13800000
21.99999987	19.76379000
22.03999987	1.79448800
22.07999987	-12.57363000
22.11999987	-30.54292000
22.15999987	-46.71774000
22.19999987	-61.09195000
22.23999986	-80.86184000
22.27999986	-89.84650000
22.31999986	-106.01520000
22.35999986	-79.06125000
22.39999986	-59.29746000
22.43999986	-37.73308000
22.47999986	-37.73308000
22.51999986	-30.54292000
22.55999986	-28.74844000
22.59999986	-28.74844000
22.63999986	-32.34352000
22.67999986	-35.93859000
22.71999986	-35.93859000
22.75999986	-41.32816000
22.79999986	-46.71774000
22.83999986	-52.10730000
22.87999986	-53.90789000
22.91999986	-53.90789000
22.95999986	-48.51222000
22.99999986	-37.73308000
23.03999986	-28.74844000
23.07999986	-21.55827000
23.11999986	-16.16870000
23.15999986	-10.77914000
23.19999986	-10.77914000
23.23999986	-12.57363000
23.27999986	-10.77914000
23.31999986	-7.18405700
23.35999986	-3.58897700
23.39999986	1.79448800
23.43999986	10.77914000
23.47999986	21.55827000
23.51999986	34.13800000
23.55999986	48.51222000
23.59999986	59.29746000
23.63999986	71.87719000
23.67999986	79.06125000
23.71999986	88.04590000
23.75999986	91.64098000
23.79999986	80.86184000
23.83999986	70.07660000
23.87999985	64.68703000
23.91999985	61.09195000
23.95999985	57.50298000
23.99999985	55.70238000
24.03999985	53.90789000
24.07999985	53.90789000
24.11999985	57.50298000
24.15999985	50.31281000
24.19999985	48.51222000
24.23999985	50.31281000
24.27999985	50.31281000
24.31999985	50.31281000
24.35999985	41.32816000
24.39999985	28.74844000
24.43999985	14.37422000
24.47999985	-1.79448800
24.51999985	-16.16870000
24.55999985	-34.13800000
24.59999985	-50.31281000
24.63999985	-64.68703000
24.67999985	-79.06125000
24.71999985	-88.04590000
24.75999985	-91.64098000
24.79999985	-79.06125000
24.83999985	-64.68703000
24.87999985	-52.10730000
24.91999985	-43.12265000
24.95999985	-35.93859000
24.99999985	-34.13800000
25.03999985	-34.13800000
25.07999985	-35.93859000
25.11999985	-35.93859000
25.15999985	-39.52757000
25.19999985	-43.12265000
25.23999985	-48.51222000
25.27999985	-52.10730000
25.31999985	-53.90789000
25.35999985	-52.10730000
25.39999985	-46.71774000
25.43999985	-39.52757000
25.47999985	-32.34352000
25.51999984	-23.35887000
25.55999984	-17.96930000
25.59999984	-17.96930000
25.63999984	-14.37422000
25.67999984	-14.37422000
25.71999984	-10.77914000
25.75999984	-7.18405700
25.79999984	-1.79448800
25.83999984	3.58897700
25.87999984	12.57363000
25.91999984	23.35887000
25.95999984	34.13800000
25.99999984	46.71774000
26.03999984	57.50298000
26.07999984	68.28211000
26.11999984	75.47227000
26.15999984	84.45692000
26.19999984	88.04590000
26.23999984	80.86184000
26.27999984	71.87719000
26.31999984	61.09195000
26.35999984	62.89254000
26.39999984	59.29746000
26.43999984	53.90789000
26.47999984	53.90789000
26.51999984	52.10730000
26.55999984	50.31281000
26.59999984	50.31281000
26.63999984	52.10730000
26.67999984	50.31281000
26.71999984	48.51222000
26.75999984	46.71774000
26.79999984	39.52757000
26.83999984	28.74844000
26.87999984	12.57363000
26.91999984	-3.58897700
26.95999984	-17.96930000
26.99999984	-35.93859000
27.03999984	-50.31281000
27.07999984	-64.68703000
27.11999984	-79.06125000
27.15999983	-82.65633000
27.19999983	-91.64098000
27.23999983	-84.45692000
27.27999983	-59.29746000
27.31999983	-35.93859000
27.35999983	-32.34352000
27.39999983	-34.13800000
27.43999983	-35.93859000
27.47999983	-32.34352000
27.51999983	-32.34352000
27.55999983	-39.52757000
27.59999983	-41.32816000
27.63999983	-43.12265000
27.67999983	-50.31281000
27.71999983	-53.90789000
27.75999983	-57.50298000
27.79999983	-55.70238000
27.83999983	-50.31281000
27.87999983	-41.32816000
27.91999983	-30.54292000
27.95999983	-23.35887000
27.99999983	-17.96930000
28.03999983	-16.16870000
28.07999983	-14.37422000
28.11999983	-12.57363000
28.15999983	-10.77914000
28.19999983	-8.98464900
28.23999983	-3.58897700
28.27999983	0.00000000
28.31999983	8.98464900
28.35999983	17.96930000
28.39999983	32.34352000
28.43999983	44.92325000
28.47999983	59.29746000
28.51999983	68.28211000
28.55999983	77.26676000
28.59999983	89.84650000
28.63999983	91.64098000
28.67999983	86.25141000
28.71999983	70.07660000
28.75999983	64.68703000
28.79999982	64.68703000
28.83999982	57.50298000
28.87999982	57.50298000
28.91999982	52.10730000
28.95999982	50.31281000
28.99999982	50.31281000
29.03999982	53.90789000
29.07999982	52.10730000
29.11999982	52.10730000
29.15999982	52.10730000
29.19999982	48.51222000
29.23999982	43.12265000
29.27999982	32.34352000
29.31999982	17.96930000
29.35999982	3.58897700
29.39999982	-14.37422000
29.43999982	-30.54292000
29.47999982	-46.71774000
29.51999982	-61.09195000
29.55999982	-75.47227000
29.59999982	-89.84650000
29.63999982	-88.04590000
29.67999982	-77.26676000
29.71999982	-55.70238000
29.75999982	-43.12265000
29.79999982	-39.52757000
29.83999982	-34.13800000
29.87999982	-32.34352000
29.91999982	-34.13800000
29.95999982	-39.52757000
29.99999982	-37.73308000
30.03999982	-39.52757000
30.07999982	-43.12265000
30.11999982	-48.51222000
30.15999982	-52.10730000
30.19999982	-55.70238000
30.23999982	-53.90789000
30.27999982	-46.71774000
30.31999982	-37.73308000
30.35999982	-30.54292000
30.39999982	-25.15336000
30.43999982	-19.76379000
30.47999981	-16.16870000
30.51999981	-14.37422000
30.55999981	-14.37422000
30.59999981	-14.37422000
30.63999981	-8.98464900
30.67999981	-7.18405700
30.71999981	0.00000000
30.75999981	7.18405700
30.79999981	19.76379000
30.83999981	32.34352000
30.87999981	46.71774000
30.91999981	57.50298000
30.95999981	68.28211000
30.99999981	77.26676000
31.03999981	80.86184000
31.07999981	88.04590000
31.11999981	80.86184000
31.15999981	75.47227000
31.19999981	64.68703000
31.23999981	62.89254000
31.27999981	61.09195000
31.31999981	55.70238000
31.35999981	52.10730000
31.39999981	53.90789000
31.43999981	53.90789000
31.47999981	52.10730000
31.51999981	53.90789000
31.55999981	52.10730000
31.59999981	52.10730000
31.63999981	48.51222000
31.67999981	43.12265000
