Time,Channel A
(us),(mV)

0.00000000,-37.73308000
0.04000000,-53.90789000
0.08000000,-66.48762000
0.12000000,-77.26676000
0.16000000,-86.25141000
0.20000000,-89.84650000
0.24000000,-86.25141000
0.28000000,-80.86184000
0.32000000,-79.06125000
0.36000000,-77.26676000
0.40000000,-71.87719000
0.44000000,-64.68703000
0.48000000,-59.29746000
0.52000000,-57.50298000
0.56000000,-53.90789000
0.60000000,-50.31281000
0.64000000,-46.71774000
0.68000000,-46.71774000
0.72000000,-44.92325000
0.76000000,-43.12265000
0.80000000,-41.32816000
0.83999999,-35.93859000
0.87999999,-30.54292000
0.91999999,-25.15336000
0.95999999,-17.96930000
0.99999999,-8.98464900
1.03999999,-1.79448800
1.07999999,7.18405700
1.11999999,16.16870000
1.15999999,23.35887000
1.19999999,32.34352000
1.23999999,41.32816000
1.27999999,48.51222000
1.31999999,57.50298000
1.35999999,68.28211000
1.39999999,79.06125000
1.43999999,91.64098000
1.47999999,100.62560000
1.51999999,104.22070000
1.55999999,106.01520000
1.59999999,102.42620000
1.63999999,98.83114000
1.67999999,89.84650000
1.71999999,75.47227000
1.75999999,59.29746000
1.79999999,48.51222000
1.83999999,41.32816000
1.87999999,37.73308000
1.91999999,39.52757000
1.95999999,43.12265000
1.99999999,44.92325000
2.03999999,44.92325000
2.07999999,41.32816000
2.11999999,25.15336000
2.15999999,1.79448800
2.19999999,-23.35887000
2.23999999,-46.71774000
2.27999999,-68.28211000
2.31999999,-88.04590000
2.35999999,-100.62560000
2.39999999,-106.01520000
2.43999999,-104.22070000
2.47999998,-100.62560000
2.51999998,-97.03055000
2.55999998,-91.64098000
2.59999998,-84.45692000
2.63999998,-75.47227000
2.67999998,-66.48762000
2.71999998,-61.09195000
2.75999998,-57.50298000
2.79999998,-52.10730000
2.83999998,-48.51222000
2.87999998,-43.12265000
2.91999998,-41.32816000
2.95999998,-37.73308000
2.99999998,-34.13800000
3.03999998,-28.74844000
3.07999998,-23.35887000
3.11999998,-19.76379000
3.15999998,-14.37422000
3.19999998,-10.77914000
3.23999998,-7.18405700
3.27999998,-3.58897700
3.31999998,5.38956800
3.35999998,10.77914000
3.39999998,21.55827000
3.43999998,32.34352000
3.47999998,39.52757000
3.51999998,52.10730000
3.55999998,62.89254000
3.59999998,77.26676000
3.63999998,86.25141000
3.67999998,95.23605000
3.71999998,102.42620000
3.75999998,104.22070000
3.79999998,104.22070000
3.83999998,100.62560000
3.87999998,98.83114000
3.91999998,93.44157000
3.95999998,86.25141000
3.99999998,80.86184000
4.03999998,71.87719000
4.07999998,59.29746000
4.11999997,46.71774000
4.15999997,34.13800000
4.19999997,21.55827000
4.23999997,10.77914000
4.27999997,0.00000000
4.31999997,-10.77914000
4.35999997,-21.55827000
4.39999997,-34.13800000
4.43999997,-44.92325000
4.47999997,-57.50298000
4.51999997,-70.07660000
4.55999997,-79.06125000
4.59999997,-82.65633000
4.63999997,-82.65633000
4.67999997,-82.65633000
4.71999997,-77.26676000
4.75999997,-71.87719000
4.79999997,-64.68703000
4.83999997,-61.09195000
4.87999997,-62.89254000
4.91999997,-61.09195000
4.95999997,-52.10730000
4.99999997,-46.71774000
5.03999997,-46.71774000
5.07999997,-46.71774000
5.11999997,-44.92325000
5.15999997,-43.12265000
5.19999997,-43.12265000
5.23999997,-43.12265000
5.27999997,-39.52757000
5.31999997,-34.13800000
5.35999997,-26.95395000
5.39999997,-19.76379000
5.43999997,-10.77914000
5.47999997,-1.79448800
5.51999997,7.18405700
5.55999997,17.96930000
5.59999997,28.74844000
5.63999997,35.93859000
5.67999997,44.92325000
5.71999997,55.70238000
5.75999996,64.68703000
5.79999996,77.26676000
5.83999996,88.04590000
5.87999996,100.62560000
5.91999996,106.01520000
5.95999996,107.81580000
5.99999996,107.81580000
6.03999996,104.22070000
6.07999996,97.03055000
6.11999996,91.64098000
6.15999996,82.65633000
6.19999996,73.67168000
6.23999996,64.68703000
6.27999996,53.90789000
6.31999996,44.92325000
6.35999996,34.13800000
6.39999996,25.15336000
6.43999996,14.37422000
6.47999996,7.18405700
6.51999996,0.00000000
6.55999996,-10.77914000
6.59999996,-23.35887000
6.63999996,-37.73308000
6.67999996,-52.10730000
6.71999996,-66.48762000
6.75999996,-77.26676000
6.79999996,-84.45692000
6.83999996,-86.25141000
6.87999996,-88.04590000
6.91999996,-84.45692000
6.95999996,-80.86184000
6.99999996,-77.26676000
7.03999996,-71.87719000
7.07999996,-66.48762000
7.11999996,-59.29746000
7.15999996,-55.70238000
7.19999996,-52.10730000
7.23999996,-48.51222000
7.27999996,-46.71774000
7.31999996,-44.92325000
7.35999996,-43.12265000
7.39999996,-41.32816000
7.43999995,-37.73308000
7.47999995,-35.93859000
7.51999995,-30.54292000
7.55999995,-23.35887000
7.59999995,-17.96930000
7.63999995,-8.98464900
7.67999995,0.00000000
7.71999995,8.98464900
7.75999995,19.76379000
7.79999995,26.95395000
7.83999995,35.93859000
7.87999995,44.92325000
7.91999995,53.90789000
7.95999995,62.89254000
7.99999995,73.67168000
8.03999995,86.25141000
8.07999995,95.23605000
8.11999995,104.22070000
8.15999995,107.81580000
8.19999995,107.81580000
8.23999995,102.42620000
8.27999995,86.25141000
8.31999995,88.04590000
8.35999995,91.64098000
8.39999995,80.86184000
8.43999995,64.68703000
8.47999995,53.90789000
8.51999995,46.71774000
8.55999995,39.52757000
8.59999995,26.95395000
8.63999995,14.37422000
8.67999995,7.18405700
8.71999995,-1.79448800
8.75999995,-14.37422000
8.79999995,-26.95395000
8.83999995,-39.52757000
8.87999995,-55.70238000
8.91999995,-70.07660000
8.95999995,-79.06125000
8.99999995,-86.25141000
9.03999995,-89.84650000
9.07999994,-89.84650000
9.11999994,-86.25141000
9.15999994,-82.65633000
9.19999994,-79.06125000
9.23999994,-73.67168000
9.27999994,-68.28211000
9.31999994,-62.89254000
9.35999994,-59.29746000
9.39999994,-55.70238000
9.43999994,-52.10730000
9.47999994,-50.31281000
9.51999994,-46.71774000
9.55999994,-44.92325000
9.59999994,-43.12265000
9.63999994,-37.73308000
9.67999994,-35.93859000
9.71999994,-28.74844000
9.75999994,-23.35887000
9.79999994,-21.55827000
9.83999994,-8.98464900
9.87999994,0.00000000
9.91999994,8.98464900
9.95999994,14.37422000
9.99999994,21.55827000
10.03999994,34.13800000
10.07999994,41.32816000
10.11999994,46.71774000
10.15999994,55.70238000
10.19999994,66.48762000
10.23999994,79.06125000
10.27999994,89.84650000
10.31999994,98.83114000
10.35999994,102.42620000
10.39999994,104.22070000
10.43999994,102.42620000
10.47999994,100.62560000
10.51999994,93.44157000
10.55999994,86.25141000
10.59999994,79.06125000
10.63999994,71.87719000
10.67999994,61.09195000
10.71999993,48.51222000
10.75999993,41.32816000
10.79999993,30.54292000
10.83999993,21.55827000
10.87999993,12.57363000
10.91999993,3.58897700
10.95999993,-7.18405700
10.99999993,-17.96930000
11.03999993,-30.54292000
11.07999993,-44.92325000
11.11999993,-59.29746000
11.15999993,-71.87719000
11.19999993,-80.86184000
11.23999993,-86.25141000
11.27999993,-88.04590000
11.31999993,-84.45692000
11.35999993,-82.65633000
11.39999993,-75.47227000
11.43999993,-71.87719000
11.47999993,-64.68703000
11.51999993,-61.09195000
11.55999993,-57.50298000
11.59999993,-53.90789000
11.63999993,-52.10730000
11.67999993,-50.31281000
11.71999993,-48.51222000
11.75999993,-48.51222000
11.79999993,-46.71774000
11.83999993,-50.31281000
11.87999993,-53.90789000
11.91999993,-62.89254000
11.95999993,-68.28211000
11.99999993,-50.31281000
12.03999993,-25.15336000
12.07999993,-8.98464900
12.11999993,10.77914000
12.15999993,34.13800000
12.19999993,62.89254000
12.23999993,80.86184000
12.27999993,80.86184000
12.31999993,66.48762000
12.35999992,61.09195000
12.39999992,66.48762000
12.43999992,70.07660000
12.47999992,68.28211000
12.51999992,70.07660000
12.55999992,80.86184000
12.59999992,93.44157000
12.63999992,100.62560000
12.67999992,93.44157000
12.71999992,86.25141000
12.75999992,82.65633000
12.79999992,79.06125000
12.83999992,71.87719000
12.87999992,62.89254000
12.91999992,50.31281000
12.95999992,43.12265000
12.99999992,35.93859000
13.03999992,30.54292000
13.07999992,21.55827000
13.11999992,14.37422000
13.15999992,3.58897700
13.19999992,1.79448800
13.23999992,-7.18405700
13.27999992,-19.76379000
13.31999992,-39.52757000
13.35999992,-61.09195000
13.39999992,-75.47227000
13.43999992,-89.84650000
13.47999992,-95.23605000
13.51999992,-100.62560000
13.55999992,-100.62560000
13.59999992,-93.44157000
13.63999992,-86.25141000
13.67999992,-77.26676000
13.71999992,-70.07660000
13.75999992,-62.89254000
13.79999992,-57.50298000
13.83999992,-52.10730000
13.87999992,-50.31281000
13.91999992,-50.31281000
13.95999992,-48.51222000
13.99999991,-44.92325000
14.03999991,-41.32816000
14.07999991,-37.73308000
14.11999991,-32.34352000
14.15999991,-26.95395000
14.19999991,-17.96930000
14.23999991,-10.77914000
14.27999991,-7.18405700
14.31999991,0.00000000
14.35999991,8.98464900
14.39999991,16.16870000
14.43999991,17.96930000
14.47999991,21.55827000
14.51999991,32.34352000
14.55999991,43.12265000
14.59999991,52.10730000
14.63999991,61.09195000
14.67999991,71.87719000
14.71999991,84.45692000
14.75999991,93.44157000
14.79999991,102.42620000
14.83999991,106.01520000
14.87999991,106.01520000
14.91999991,104.22070000
14.95999991,98.83114000
14.99999991,91.64098000
15.03999991,82.65633000
15.07999991,73.67168000
15.11999991,64.68703000
15.15999991,55.70238000
15.19999991,44.92325000
15.23999991,34.13800000
15.27999991,25.15336000
15.31999991,14.37422000
15.35999991,3.58897700
15.39999991,-7.18405700
15.43999991,-19.76379000
15.47999991,-32.34352000
15.51999991,-44.92325000
15.55999991,-59.29746000
15.59999991,-71.87719000
15.63999990,-79.06125000
15.67999990,-86.25141000
15.71999990,-86.25141000
15.75999990,-84.45692000
15.79999990,-79.06125000
15.83999990,-77.26676000
15.87999990,-71.87719000
15.91999990,-66.48762000
15.95999990,-62.89254000
15.99999990,-57.50298000
16.03999990,-55.70238000
16.07999990,-52.10730000
16.11999990,-52.10730000
16.15999990,-50.31281000
16.19999990,-48.51222000
16.23999990,-46.71774000
16.27999990,-46.71774000
16.31999990,-46.71774000
16.35999990,-41.32816000
16.39999990,-35.93859000
16.43999990,-28.74844000
16.47999990,-21.55827000
16.51999990,-10.77914000
16.55999990,-1.79448800
16.59999990,10.77914000
16.63999990,19.76379000
16.67999990,28.74844000
16.71999990,35.93859000
16.75999990,44.92325000
16.79999990,52.10730000
16.83999990,61.09195000
16.87999990,70.07660000
16.91999990,80.86184000
16.95999990,89.84650000
16.99999990,98.83114000
17.03999990,102.42620000
17.07999990,104.22070000
17.11999990,102.42620000
17.15999990,98.83114000
17.19999990,93.44157000
17.23999990,86.25141000
17.27999989,79.06125000
17.31999989,70.07660000
17.35999989,61.09195000
17.39999989,50.31281000
17.43999989,41.32816000
17.47999989,28.74844000
17.51999989,19.76379000
17.55999989,10.77914000
17.59999989,3.58897700
17.63999989,-7.18405700
17.67999989,-17.96930000
17.71999989,-30.54292000
17.75999989,-43.12265000
17.79999989,-57.50298000
17.83999989,-71.87719000
17.87999989,-82.65633000
17.91999989,-88.04590000
17.95999989,-91.64098000
17.99999989,-89.84650000
18.03999989,-86.25141000
18.07999989,-73.67168000
18.11999989,-75.47227000
18.15999989,-71.87719000
18.19999989,-55.70238000
18.23999989,-44.92325000
18.27999989,-46.71774000
18.31999989,-50.31281000
18.35999989,-48.51222000
18.39999989,-43.12265000
18.43999989,-43.12265000
18.47999989,-44.92325000
18.51999989,-43.12265000
18.55999989,-39.52757000
18.59999989,-37.73308000
18.63999989,-32.34352000
18.67999989,-25.15336000
18.71999989,-17.96930000
18.75999989,-10.77914000
18.79999989,0.00000000
18.83999989,10.77914000
18.87999989,19.76379000
18.91999989,28.74844000
18.95999988,35.93859000
18.99999988,46.71774000
19.03999988,55.70238000
19.07999988,66.48762000
19.11999988,77.26676000
19.15999988,88.04590000
19.19999988,98.83114000
19.23999988,106.01520000
19.27999988,106.01520000
19.31999988,107.81580000
19.35999988,102.42620000
19.39999988,95.23605000
19.43999988,91.64098000
19.47999988,82.65633000
19.51999988,75.47227000
19.55999988,62.89254000
19.59999988,52.10730000
19.63999988,43.12265000
19.67999988,34.13800000
19.71999988,25.15336000
19.75999988,14.37422000
19.79999988,5.38956800
19.83999988,-3.58897700
19.87999988,-14.37422000
19.91999988,-28.74844000
19.95999988,-43.12265000
19.99999988,-57.50298000
20.03999988,-70.07660000
20.07999988,-80.86184000
20.11999988,-88.04590000
20.15999988,-91.64098000
20.19999988,-89.84650000
20.23999988,-86.25141000
20.27999988,-79.06125000
20.31999988,-71.87719000
20.35999988,-66.48762000
20.39999988,-59.29746000
20.43999988,-55.70238000
20.47999988,-50.31281000
20.51999988,-46.71774000
20.55999988,-43.12265000
20.59999987,-43.12265000
20.63999987,-43.12265000
20.67999987,-41.32816000
20.71999987,-41.32816000
20.75999987,-39.52757000
20.79999987,-35.93859000
20.83999987,-32.34352000
20.87999987,-26.95395000
20.91999987,-19.76379000
20.95999987,-10.77914000
20.99999987,-3.58897700
21.03999987,7.18405700
21.07999987,16.16870000
21.11999987,25.15336000
21.15999987,35.93859000
21.19999987,43.12265000
21.23999987,55.70238000
21.27999987,66.48762000
21.31999987,77.26676000
21.35999987,88.04590000
21.39999987,100.62560000
21.43999987,106.01520000
21.47999987,109.61030000
21.51999987,107.81580000
21.55999987,104.22070000
21.59999987,98.83114000
21.63999987,91.64098000
21.67999987,82.65633000
21.71999987,75.47227000
21.75999987,64.68703000
21.79999987,55.70238000
21.83999987,44.92325000
21.87999987,34.13800000
21.91999987,25.15336000
21.95999987,14.37422000
21.99999987,5.38956800
22.03999987,-3.58897700
22.07999987,-14.37422000
22.11999987,-26.95395000
22.15999987,-41.32816000
22.19999987,-55.70238000
22.23999986,-68.28211000
22.27999986,-80.86184000
22.31999986,-86.25141000
22.35999986,-89.84650000
22.39999986,-88.04590000
22.43999986,-82.65633000
22.47999986,-80.86184000
22.51999986,-75.47227000
22.55999986,-71.87719000
22.59999986,-66.48762000
22.63999986,-62.89254000
22.67999986,-57.50298000
22.71999986,-53.90789000
22.75999986,-52.10730000
22.79999986,-50.31281000
22.83999986,-46.71774000
22.87999986,-46.71774000
22.91999986,-43.12265000
22.95999986,-43.12265000
22.99999986,-41.32816000
23.03999986,-32.34352000
23.07999986,-26.95395000
23.11999986,-14.37422000
23.15999986,-7.18405700
23.19999986,0.00000000
23.23999986,7.18405700
23.27999986,16.16870000
23.31999986,25.15336000
23.35999986,32.34352000
23.39999986,41.32816000
23.43999986,46.71774000
23.47999986,55.70238000
23.51999986,64.68703000
23.55999986,77.26676000
23.59999986,86.25141000
23.63999986,95.23605000
23.67999986,102.42620000
23.71999986,106.01520000
23.75999986,104.22070000
23.79999986,100.62560000
23.83999986,95.23605000
23.87999985,89.84650000
23.91999985,80.86184000
23.95999985,71.87719000
23.99999985,62.89254000
24.03999985,52.10730000
24.07999985,41.32816000
24.11999985,30.54292000
24.15999985,21.55827000
24.19999985,12.57363000
24.23999985,3.58897700
24.27999985,-5.38956800
24.31999985,-16.16870000
24.35999985,-28.74844000
24.39999985,-43.12265000
24.43999985,-57.50298000
24.47999985,-70.07660000
24.51999985,-80.86184000
24.55999985,-86.25141000
24.59999985,-88.04590000
24.63999985,-84.45692000
24.67999985,-84.45692000
24.71999985,-82.65633000
24.75999985,-73.67168000
24.79999985,-64.68703000
24.83999985,-59.29746000
24.87999985,-57.50298000
24.91999985,-55.70238000
24.95999985,-52.10730000
24.99999985,-46.71774000
25.03999985,-48.51222000
25.07999985,-46.71774000
25.11999985,-46.71774000
25.15999985,-43.12265000
25.19999985,-41.32816000
25.23999985,-37.73308000
25.27999985,-34.13800000
25.31999985,-28.74844000
25.35999985,-19.76379000
25.39999985,-10.77914000
25.43999985,-1.79448800
25.47999985,7.18405700
25.51999984,16.16870000
25.55999984,25.15336000
25.59999984,34.13800000
25.63999984,41.32816000
25.67999984,50.31281000
25.71999984,59.29746000
25.75999984,70.07660000
25.79999984,79.06125000
25.83999984,91.64098000
25.87999984,100.62560000
25.91999984,107.81580000
25.95999984,107.81580000
25.99999984,106.01520000
26.03999984,102.42620000
26.07999984,97.03055000
26.11999984,88.04590000
26.15999984,79.06125000
26.19999984,70.07660000
26.23999984,61.09195000
26.27999984,50.31281000
26.31999984,39.52757000
26.35999984,30.54292000
26.39999984,19.76379000
26.43999984,12.57363000
26.47999984,1.79448800
26.51999984,-7.18405700
26.55999984,-17.96930000
26.59999984,-30.54292000
26.63999984,-44.92325000
26.67999984,-59.29746000
26.71999984,-71.87719000
26.75999984,-82.65633000
26.79999984,-89.84650000
26.83999984,-93.44157000
26.87999984,-89.84650000
26.91999984,-86.25141000
26.95999984,-80.86184000
26.99999984,-73.67168000
27.03999984,-70.07660000
27.07999984,-64.68703000
27.11999984,-59.29746000
27.15999983,-55.70238000
27.19999983,-53.90789000
27.23999983,-50.31281000
27.27999983,-50.31281000
27.31999983,-46.71774000
27.35999983,-46.71774000
27.39999983,-44.92325000
27.43999983,-41.32816000
27.47999983,-37.73308000
27.51999983,-30.54292000
27.55999983,-23.35887000
27.59999983,-16.16870000
27.63999983,-7.18405700
27.67999983,1.79448800
27.71999983,10.77914000
27.75999983,19.76379000
27.79999983,26.95395000
27.83999983,35.93859000
27.87999983,43.12265000
27.91999983,53.90789000
27.95999983,57.50298000
27.99999983,61.09195000
28.03999983,80.86184000
28.07999983,100.62560000
28.11999983,102.42620000
28.15999983,104.22070000
28.19999983,104.22070000
28.23999983,106.01520000
28.27999983,100.62560000
28.31999983,93.44157000
28.35999983,86.25141000
28.39999983,79.06125000
28.43999983,68.28211000
28.47999983,57.50298000
28.51999983,48.51222000
28.55999983,37.73308000
28.59999983,26.95395000
28.63999983,19.76379000
28.67999983,10.77914000
28.71999983,1.79448800
28.75999983,-8.98464900
28.79999982,-21.55827000
28.83999982,-32.34352000
28.87999982,-46.71774000
28.91999982,-61.09195000
28.95999982,-73.67168000
28.99999982,-82.65633000
29.03999982,-88.04590000
29.07999982,-91.64098000
29.11999982,-89.84650000
29.15999982,-86.25141000
29.19999982,-79.06125000
29.23999982,-73.67168000
29.27999982,-68.28211000
29.31999982,-59.29746000
29.35999982,-53.90789000
29.39999982,-46.71774000
29.43999982,-44.92325000
29.47999982,-43.12265000
29.51999982,-43.12265000
29.55999982,-43.12265000
29.59999982,-43.12265000
29.63999982,-41.32816000
29.67999982,-37.73308000
29.71999982,-37.73308000
29.75999982,-34.13800000
29.79999982,-26.95395000
29.83999982,-17.96930000
29.87999982,-10.77914000
29.91999982,-3.58897700
29.95999982,5.38956800
29.99999982,16.16870000
30.03999982,25.15336000
30.07999982,34.13800000
30.11999982,43.12265000
30.15999982,53.90789000
30.19999982,64.68703000
30.23999982,75.47227000
30.27999982,88.04590000
30.31999982,98.83114000
30.35999982,106.01520000
30.39999982,109.61030000
30.43999982,109.61030000
30.47999981,106.01520000
30.51999981,98.83114000
30.55999981,93.44157000
30.59999981,86.25141000
30.63999981,77.26676000
30.67999981,66.48762000
30.71999981,55.70238000
30.75999981,46.71774000
30.79999981,35.93859000
30.83999981,26.95395000
30.87999981,16.16870000
30.91999981,7.18405700
30.95999981,-1.79448800
30.99999981,-10.77914000
31.03999981,-23.35887000
31.07999981,-35.93859000
31.11999981,-50.31281000
31.15999981,-64.68703000
31.19999981,-75.47227000
31.23999981,-84.45692000
31.27999981,-88.04590000
31.31999981,-88.04590000
31.35999981,-82.65633000
31.39999981,-79.06125000
31.43999981,-73.67168000
31.47999981,-66.48762000
31.51999981,-61.09195000
31.55999981,-55.70238000
31.59999981,-53.90789000
