Time,Channel A
(us),(mV)

0.00000000,4.33362800
0.04000000,17.80755000
0.08000000,31.28147000
0.12000000,40.26917000
0.16000000,49.25687000
0.20000000,62.73079000
0.24000000,67.21701000
0.28000000,71.71850000
0.32000000,80.70620000
0.36000000,89.67863000
0.40000000,98.66634000
0.44000000,107.65400000
0.48000000,112.14030000
0.52000000,121.12800000
0.56000000,125.61420000
0.60000000,134.60190000
0.64000000,139.10340000
0.68000000,143.58960000
0.72000000,143.58960000
0.76000000,143.58960000
0.80000000,143.58960000
0.83999999,134.60190000
0.87999999,130.11560000
0.91999999,121.12800000
0.95999999,112.14030000
0.99999999,98.66634000
1.03999999,85.19241000
1.07999999,71.71850000
1.11999999,58.24457000
1.15999999,44.75539000
1.19999999,31.28147000
1.23999999,13.32133000
1.27999999,4.33362800
1.31999999,-9.12503300
1.35999999,-18.11273000
1.39999999,-27.10044000
1.43999999,-36.08813000
1.47999999,-45.06058000
1.51999999,-54.04828000
1.55999999,-58.54976000
1.59999999,-67.52220000
1.63999999,-72.02368000
1.67999999,-76.50990000
1.71999999,-85.49760000
1.75999999,-89.98383000
1.79999999,-98.97152000
1.83999999,-103.45770000
1.87999999,-112.44540000
1.91999999,-116.94690000
1.95999999,-125.91940000
1.99999999,-125.91940000
2.03999999,-130.42080000
2.07999999,-130.42080000
2.11999999,-130.42080000
2.15999999,-130.42080000
2.19999999,-125.91940000
2.23999999,-121.43310000
2.27999999,-112.44540000
2.31999999,-103.45770000
2.35999999,-89.98383000
2.39999999,-76.50990000
2.43999999,-67.52220000
2.47999998,-54.04828000
2.51999998,-36.08813000
2.55999998,-22.59896000
2.59999998,-9.12503300
2.63999998,4.33362800
2.67999998,17.80755000
2.71999998,26.79525000
2.75999998,35.78295000
2.79999998,49.25687000
2.83999998,58.24457000
2.87999998,62.73079000
2.91999998,71.71850000
2.95999998,80.70620000
2.99999998,85.19241000
3.03999998,89.67863000
3.07999998,103.15250000
3.11999998,107.65400000
3.15999998,116.64170000
3.19999998,125.61420000
3.23999998,130.11560000
3.27999998,139.10340000
3.31999998,143.58960000
3.35999998,143.58960000
3.39999998,143.58960000
3.43999998,143.58960000
3.47999998,139.10340000
3.51999998,134.60190000
3.55999998,125.61420000
3.59999998,116.64170000
3.63999998,103.15250000
3.67999998,89.67863000
3.71999998,76.20471000
3.75999998,62.73079000
3.79999998,44.75539000
3.83999998,31.28147000
3.87999998,17.80755000
3.91999998,4.33362800
3.95999998,-4.63881300
3.99999998,-18.11273000
4.03999998,-27.10044000
4.07999998,-36.08813000
4.11999997,-40.57436000
4.15999997,-54.04828000
4.19999997,-58.54976000
4.23999997,-63.03598000
4.27999997,-72.02368000
4.31999997,-76.50990000
4.35999997,-81.01138000
4.39999997,-98.97152000
4.43999997,-94.48530000
4.47999997,-94.48530000
4.51999997,-107.95920000
4.55999997,-112.44540000
4.59999997,-125.91940000
4.63999997,-125.91940000
4.67999997,-125.91940000
4.71999997,-130.42080000
4.75999997,-130.42080000
4.79999997,-130.42080000
4.83999997,-125.91940000
4.87999997,-125.91940000
4.91999997,-112.44540000
4.95999997,-107.95920000
4.99999997,-94.48530000
5.03999997,-85.49760000
5.07999997,-72.02368000
5.11999997,-54.04828000
5.15999997,-40.57436000
5.19999997,-27.10044000
5.23999997,-13.62651000
5.27999997,-0.15259250
5.31999997,13.32133000
5.35999997,26.79525000
5.39999997,35.78295000
5.43999997,44.75539000
5.47999997,53.74309000
5.51999997,67.21701000
5.55999997,71.71850000
5.59999997,80.70620000
5.63999997,85.19241000
5.67999997,89.67863000
5.71999997,103.15250000
5.75999996,107.65400000
5.79999996,116.64170000
5.83999996,125.61420000
5.87999996,130.11560000
5.91999996,139.10340000
5.95999996,139.10340000
5.99999996,143.58960000
6.03999996,143.58960000
6.07999996,143.58960000
6.11999996,139.10340000
6.15999996,134.60190000
6.19999996,125.61420000
6.23999996,116.64170000
6.27999996,103.15250000
6.31999996,89.67863000
6.35999996,80.70620000
6.39999996,62.73079000
6.43999996,49.25687000
6.47999996,35.78295000
6.51999996,22.29377000
6.55999996,8.81984900
6.59999996,-4.63881300
6.63999996,-13.62651000
6.67999996,-22.59896000
6.71999996,-36.08813000
6.75999996,-40.57436000
6.79999996,-49.56206000
6.83999996,-54.04828000
6.87999996,-63.03598000
6.91999996,-72.02368000
6.95999996,-76.50990000
6.99999996,-81.01138000
7.03999996,-89.98383000
7.07999996,-94.48530000
7.11999996,-103.45770000
7.15999996,-107.95920000
7.19999996,-112.44540000
7.23999996,-116.94690000
7.27999996,-125.91940000
7.31999996,-130.42080000
7.35999996,-130.42080000
7.39999996,-130.42080000
7.43999995,-130.42080000
7.47999995,-125.91940000
7.51999995,-121.43310000
7.55999995,-112.44540000
7.59999995,-107.95920000
7.63999995,-94.48530000
7.67999995,-85.49760000
7.71999995,-72.02368000
7.75999995,-58.54976000
7.79999995,-45.06058000
7.83999995,-31.58666000
7.87999995,-18.11273000
7.91999995,-0.15259250
7.95999995,13.32133000
7.99999995,22.29377000
8.03999995,35.78295000
8.07999995,44.75539000
8.11999995,53.74309000
8.15999995,62.73079000
8.19999995,71.71850000
8.23999995,76.20471000
8.27999995,85.19241000
8.31999995,89.67863000
8.35999995,98.66634000
8.39999995,107.65400000
8.43999995,112.14030000
8.47999995,121.12800000
8.51999995,130.11560000
8.55999995,134.60190000
8.59999995,139.10340000
8.63999995,143.58960000
8.67999995,143.58960000
8.71999995,143.58960000
8.75999995,139.10340000
8.79999995,134.60190000
8.83999995,125.61420000
8.87999995,116.64170000
8.91999995,107.65400000
8.95999995,94.18011000
8.99999995,80.70620000
9.03999995,67.21701000
9.07999994,53.74309000
9.11999994,40.26917000
9.15999994,26.79525000
9.19999994,13.32133000
9.23999994,-0.15259250
9.27999994,-18.11273000
9.31999994,-22.59896000
9.35999994,-31.58666000
9.39999994,-36.08813000
9.43999994,-49.56206000
9.47999994,-58.54976000
9.51999994,-63.03598000
9.55999994,-67.52220000
9.59999994,-76.50990000
9.63999994,-81.01138000
9.67999994,-85.49760000
9.71999994,-89.98383000
9.75999994,-98.97152000
9.79999994,-107.95920000
9.83999994,-112.44540000
9.87999994,-121.43310000
9.91999994,-125.91940000
9.95999994,-125.91940000
9.99999994,-130.42080000
10.03999994,-134.90710000
10.07999994,-130.42080000
10.11999994,-130.42080000
10.15999994,-125.91940000
10.19999994,-116.94690000
10.23999994,-112.44540000
10.27999994,-98.97152000
10.31999994,-89.98383000
10.35999994,-76.50990000
10.39999994,-63.03598000
10.43999994,-45.06058000
10.47999994,-36.08813000
10.51999994,-18.11273000
10.55999994,-4.63881300
10.59999994,8.81984900
10.63999994,17.80755000
10.67999994,31.28147000
10.71999993,44.75539000
10.75999993,53.74309000
10.79999993,62.73079000
10.83999993,71.71850000
10.87999993,71.71850000
10.91999993,80.70620000
10.95999993,89.67863000
10.99999993,98.66634000
11.03999993,107.65400000
11.07999993,112.14030000
11.11999993,121.12800000
11.15999993,125.61420000
11.19999993,134.60190000
11.23999993,139.10340000
11.27999993,143.58960000
11.31999993,143.58960000
11.35999993,143.58960000
11.39999993,143.58960000
11.43999993,139.10340000
11.47999993,130.11560000
11.51999993,121.12800000
11.55999993,112.14030000
11.59999993,98.66634000
11.63999993,85.19241000
11.67999993,71.71850000
11.71999993,53.74309000
11.75999993,40.26917000
11.79999993,31.28147000
11.83999993,13.32133000
11.87999993,-0.15259250
11.91999993,-9.12503300
11.95999993,-18.11273000
11.99999993,-27.10044000
12.03999993,-36.08813000
12.07999993,-45.06058000
12.11999993,-54.04828000
12.15999993,-58.54976000
12.19999993,-67.52220000
12.23999993,-72.02368000
12.27999993,-81.01138000
12.31999993,-85.49760000
12.35999992,-94.48530000
12.39999992,-98.97152000
12.43999992,-107.95920000
12.47999992,-112.44540000
12.51999992,-116.94690000
12.55999992,-125.91940000
12.59999992,-130.42080000
12.63999992,-130.42080000
12.67999992,-134.90710000
12.71999992,-134.90710000
12.75999992,-130.42080000
12.79999992,-125.91940000
12.83999992,-121.43310000
12.87999992,-112.44540000
12.91999992,-103.45770000
12.95999992,-89.98383000
12.99999992,-81.01138000
13.03999992,-63.03598000
13.07999992,-49.56206000
13.11999992,-36.08813000
13.15999992,-18.11273000
13.19999992,-9.12503300
13.23999992,4.33362800
13.27999992,17.80755000
13.31999992,31.28147000
13.35999992,40.26917000
13.39999992,53.74309000
13.43999992,58.24457000
13.47999992,67.21701000
13.51999992,76.20471000
13.55999992,80.70620000
13.59999992,89.67863000
13.63999992,94.18011000
13.67999992,103.15250000
13.71999992,112.14030000
13.75999992,121.12800000
13.79999992,125.61420000
13.83999992,134.60190000
13.87999992,139.10340000
13.91999992,143.58960000
13.95999992,143.58960000
13.99999991,143.58960000
14.03999991,139.10340000
14.07999991,139.10340000
14.11999991,130.11560000
14.15999991,125.61420000
14.19999991,107.65400000
14.23999991,89.67863000
14.27999991,89.67863000
14.31999991,80.70620000
14.35999991,58.24457000
14.39999991,44.75539000
14.43999991,26.79525000
14.47999991,17.80755000
14.51999991,4.33362800
14.55999991,-9.12503300
14.59999991,-18.11273000
14.63999991,-27.10044000
14.67999991,-36.08813000
14.71999991,-45.06058000
14.75999991,-54.04828000
14.79999991,-58.54976000
14.83999991,-67.52220000
14.87999991,-72.02368000
14.91999991,-76.50990000
14.95999991,-85.49760000
14.99999991,-89.98383000
15.03999991,-98.97152000
15.07999991,-103.45770000
15.11999991,-107.95920000
15.15999991,-112.44540000
15.19999991,-121.43310000
15.23999991,-125.91940000
15.27999991,-125.91940000
15.31999991,-130.42080000
15.35999991,-130.42080000
15.39999991,-130.42080000
15.43999991,-125.91940000
15.47999991,-116.94690000
15.51999991,-112.44540000
15.55999991,-107.95920000
15.59999991,-94.48530000
15.63999990,-81.01138000
15.67999990,-67.52220000
15.71999990,-54.04828000
15.75999990,-36.08813000
15.79999990,-27.10044000
15.83999990,-9.12503300
15.87999990,-0.15259250
15.91999990,13.32133000
15.95999990,26.79525000
15.99999990,40.26917000
16.03999990,49.25687000
16.07999990,58.24457000
16.11999990,67.21701000
16.15999990,71.71850000
16.19999990,76.20471000
16.23999990,80.70620000
16.27999990,85.19241000
16.31999990,89.67863000
16.35999990,94.18011000
16.39999990,94.18011000
16.43999990,103.15250000
16.47999990,121.12800000
16.51999990,139.10340000
16.55999990,157.06350000
16.59999990,166.05120000
16.63999990,175.03890000
16.67999990,179.52510000
16.71999990,175.03890000
16.75999990,161.56500000
16.79999990,139.10340000
16.83999990,116.64170000
16.87999990,103.15250000
16.91999990,80.70620000
16.95999990,62.73079000
16.99999990,44.75539000
17.03999990,35.78295000
17.07999990,17.80755000
17.11999990,8.81984900
17.15999990,-4.63881300
17.19999990,-18.11273000
17.23999990,-27.10044000
17.27999989,-31.58666000
17.31999989,-36.08813000
17.35999989,-45.06058000
17.39999989,-54.04828000
17.43999989,-58.54976000
17.47999989,-63.03598000
17.51999989,-67.52220000
17.55999989,-72.02368000
17.59999989,-72.02368000
17.63999989,-76.50990000
17.67999989,-81.01138000
17.71999989,-89.98383000
17.75999989,-94.48530000
17.79999989,-107.95920000
17.83999989,-116.94690000
17.87999989,-125.91940000
17.91999989,-134.90710000
17.95999989,-139.40860000
17.99999989,-143.89480000
18.03999989,-139.40860000
18.07999989,-134.90710000
18.11999989,-125.91940000
18.15999989,-116.94690000
18.19999989,-107.95920000
18.23999989,-94.48530000
18.27999989,-85.49760000
18.31999989,-72.02368000
18.35999989,-58.54976000
18.39999989,-45.06058000
18.43999989,-27.10044000
18.47999989,-13.62651000
18.51999989,4.33362800
18.55999989,17.80755000
18.59999989,35.78295000
18.63999989,44.75539000
18.67999989,53.74309000
18.71999989,62.73079000
18.75999989,67.21701000
18.79999989,71.71850000
18.83999989,76.20471000
18.87999989,80.70620000
18.91999989,89.67863000
18.95999988,98.66634000
18.99999988,107.65400000
19.03999988,112.14030000
19.07999988,116.64170000
19.11999988,121.12800000
19.15999988,134.60190000
19.19999988,139.10340000
19.23999988,139.10340000
19.27999988,143.58960000
19.31999988,143.58960000
19.35999988,143.58960000
19.39999988,134.60190000
19.43999988,125.61420000
19.47999988,121.12800000
19.51999988,107.65400000
19.55999988,94.18011000
19.59999988,80.70620000
19.63999988,71.71850000
19.67999988,53.74309000
19.71999988,40.26917000
19.75999988,26.79525000
19.79999988,13.32133000
19.83999988,-0.15259250
19.87999988,-18.11273000
19.91999988,-27.10044000
19.95999988,-36.08813000
19.99999988,-45.06058000
20.03999988,-54.04828000
20.07999988,-58.54976000
20.11999988,-67.52220000
20.15999988,-72.02368000
20.19999988,-76.50990000
20.23999988,-81.01138000
20.27999988,-89.98383000
20.31999988,-94.48530000
20.35999988,-98.97152000
20.39999988,-107.95920000
20.43999988,-107.95920000
20.47999988,-112.44540000
20.51999988,-121.43310000
20.55999988,-125.91940000
20.59999987,-125.91940000
20.63999987,-125.91940000
20.67999987,-130.42080000
20.71999987,-125.91940000
20.75999987,-125.91940000
20.79999987,-116.94690000
20.83999987,-107.95920000
20.87999987,-98.97152000
20.91999987,-89.98383000
20.95999987,-76.50990000
20.99999987,-63.03598000
21.03999987,-49.56206000
21.07999987,-31.58666000
21.11999987,-18.11273000
21.15999987,-4.63881300
21.19999987,8.81984900
21.23999987,22.29377000
21.27999987,35.78295000
21.31999987,44.75539000
21.35999987,53.74309000
21.39999987,67.21701000
21.43999987,71.71850000
21.47999987,76.20471000
21.51999987,85.19241000
21.55999987,89.67863000
21.59999987,98.66634000
21.63999987,107.65400000
21.67999987,112.14030000
21.71999987,121.12800000
21.75999987,125.61420000
21.79999987,130.11560000
21.83999987,139.10340000
21.87999987,139.10340000
21.91999987,143.58960000
21.95999987,139.10340000
21.99999987,139.10340000
22.03999987,134.60190000
22.07999987,125.61420000
22.11999987,116.64170000
22.15999987,107.65400000
22.19999987,94.18011000
22.23999986,80.70620000
22.27999986,67.21701000
22.31999986,53.74309000
22.35999986,40.26917000
22.39999986,26.79525000
22.43999986,13.32133000
22.47999986,-0.15259250
22.51999986,-9.12503300
22.55999986,-18.11273000
22.59999986,-31.58666000
22.63999986,-36.08813000
22.67999986,-49.56206000
22.71999986,-58.54976000
22.75999986,-63.03598000
22.79999986,-72.02368000
22.83999986,-76.50990000
22.87999986,-81.01138000
22.91999986,-89.98383000
22.95999986,-94.48530000
22.99999986,-103.45770000
23.03999986,-107.95920000
23.07999986,-112.44540000
23.11999986,-116.94690000
23.15999986,-125.91940000
23.19999986,-125.91940000
23.23999986,-125.91940000
23.27999986,-125.91940000
23.31999986,-130.42080000
23.35999986,-125.91940000
23.39999986,-121.43310000
23.43999986,-116.94690000
23.47999986,-107.95920000
23.51999986,-98.97152000
23.55999986,-89.98383000
23.59999986,-72.02368000
23.63999986,-63.03598000
23.67999986,-49.56206000
23.71999986,-36.08813000
23.75999986,-18.11273000
23.79999986,-4.63881300
23.83999986,4.33362800
23.87999985,17.80755000
23.91999985,31.28147000
23.95999985,40.26917000
23.99999985,53.74309000
24.03999985,53.74309000
24.07999985,62.73079000
24.11999985,76.20471000
24.15999985,89.67863000
24.19999985,89.67863000
24.23999985,98.66634000
24.27999985,103.15250000
24.31999985,116.64170000
24.35999985,121.12800000
24.39999985,130.11560000
24.43999985,134.60190000
24.47999985,139.10340000
24.51999985,143.58960000
24.55999985,143.58960000
24.59999985,143.58960000
24.63999985,139.10340000
24.67999985,134.60190000
24.71999985,125.61420000
24.75999985,121.12800000
24.79999985,107.65400000
24.83999985,94.18011000
24.87999985,85.19241000
24.91999985,71.71850000
24.95999985,53.74309000
24.99999985,40.26917000
25.03999985,26.79525000
25.07999985,13.32133000
25.11999985,4.33362800
25.15999985,-9.12503300
25.19999985,-18.11273000
25.23999985,-27.10044000
25.27999985,-36.08813000
25.31999985,-40.57436000
25.35999985,-54.04828000
25.39999985,-58.54976000
25.43999985,-63.03598000
25.47999985,-72.02368000
25.51999984,-76.50990000
25.55999984,-85.49760000
25.59999984,-89.98383000
25.63999984,-98.97152000
25.67999984,-103.45770000
25.71999984,-112.44540000
25.75999984,-116.94690000
25.79999984,-125.91940000
25.83999984,-130.42080000
25.87999984,-130.42080000
25.91999984,-130.42080000
25.95999984,-130.42080000
25.99999984,-125.91940000
26.03999984,-125.91940000
26.07999984,-116.94690000
26.11999984,-107.95920000
26.15999984,-98.97152000
26.19999984,-89.98383000
26.23999984,-76.50990000
26.27999984,-63.03598000
26.31999984,-54.04828000
26.35999984,-36.08813000
26.39999984,-22.59896000
26.43999984,-9.12503300
26.47999984,4.33362800
26.51999984,13.32133000
26.55999984,26.79525000
26.59999984,40.26917000
26.63999984,49.25687000
26.67999984,53.74309000
26.71999984,62.73079000
26.75999984,71.71850000
26.79999984,80.70620000
26.83999984,85.19241000
26.87999984,89.67863000
26.91999984,103.15250000
26.95999984,107.65400000
26.99999984,121.12800000
27.03999984,125.61420000
27.07999984,134.60190000
27.11999984,139.10340000
27.15999983,143.58960000
27.19999983,143.58960000
27.23999983,143.58960000
27.27999983,143.58960000
27.31999983,139.10340000
27.35999983,130.11560000
27.39999983,125.61420000
27.43999983,112.14030000
27.47999983,103.15250000
27.51999983,85.19241000
27.55999983,71.71850000
27.59999983,58.24457000
27.63999983,44.75539000
27.67999983,31.28147000
27.71999983,17.80755000
27.75999983,4.33362800
27.79999983,-4.63881300
27.83999983,-18.11273000
27.87999983,-27.10044000
27.91999983,-36.08813000
27.95999983,-45.06058000
27.99999983,-54.04828000
28.03999983,-58.54976000
28.07999983,-63.03598000
28.11999983,-72.02368000
28.15999983,-76.50990000
28.19999983,-81.01138000
28.23999983,-89.98383000
28.27999983,-94.48530000
28.31999983,-103.45770000
28.35999983,-107.95920000
28.39999983,-112.44540000
28.43999983,-121.43310000
28.47999983,-125.91940000
28.51999983,-130.42080000
28.55999983,-130.42080000
28.59999983,-130.42080000
28.63999983,-130.42080000
28.67999983,-125.91940000
28.71999983,-121.43310000
28.75999983,-112.44540000
28.79999982,-103.45770000
28.83999982,-89.98383000
28.87999982,-81.01138000
28.91999982,-72.02368000
28.95999982,-58.54976000
28.99999982,-36.08813000
29.03999982,-22.59896000
29.07999982,-9.12503300
29.11999982,-0.15259250
29.15999982,13.32133000
29.19999982,26.79525000
29.23999982,35.78295000
29.27999982,49.25687000
29.31999982,53.74309000
29.35999982,67.21701000
29.39999982,71.71850000
29.43999982,76.20471000
29.47999982,85.19241000
29.51999982,89.67863000
29.55999982,103.15250000
29.59999982,112.14030000
29.63999982,116.64170000
29.67999982,125.61420000
29.71999982,134.60190000
29.75999982,134.60190000
29.79999982,143.58960000
29.83999982,143.58960000
29.87999982,143.58960000
29.91999982,143.58960000
29.95999982,139.10340000
29.99999982,134.60190000
30.03999982,125.61420000
30.07999982,116.64170000
30.11999982,103.15250000
30.15999982,89.67863000
30.19999982,76.20471000
30.23999982,67.21701000
30.27999982,49.25687000
30.31999982,35.78295000
30.35999982,17.80755000
30.39999982,4.33362800
30.43999982,-4.63881300
30.47999981,-18.11273000
30.51999981,-27.10044000
30.55999981,-36.08813000
30.59999981,-40.57436000
30.63999981,-49.56206000
30.67999981,-58.54976000
30.71999981,-63.03598000
30.75999981,-72.02368000
30.79999981,-76.50990000
30.83999981,-81.01138000
30.87999981,-89.98383000
30.91999981,-94.48530000
30.95999981,-103.45770000
30.99999981,-107.95920000
31.03999981,-112.44540000
31.07999981,-121.43310000
31.11999981,-125.91940000
31.15999981,-125.91940000
31.19999981,-130.42080000
31.23999981,-130.42080000
