Time	Channel A
(us)	(mV)

0.00000000	52.10730000
0.04000000	50.31281000
0.08000000	50.31281000
0.12000000	48.51222000
0.16000000	48.51222000
0.20000000	48.51222000
0.24000000	44.92325000
0.28000000	39.52757000
0.32000000	32.34352000
0.36000000	21.55827000
0.40000000	7.18405700
0.44000000	-7.18405700
0.48000000	-21.55827000
0.52000000	-35.93859000
0.56000000	-50.31281000
0.60000000	-64.68703000
0.64000000	-75.47227000
0.68000000	-82.65633000
0.72000000	-79.06125000
0.76000000	-64.68703000
0.80000000	-48.51222000
0.83999999	-39.52757000
0.87999999	-39.52757000
0.91999999	-35.93859000
0.95999999	-32.34352000
0.99999999	-32.34352000
1.03999999	-35.93859000
1.07999999	-37.73308000
1.11999999	-43.12265000
1.15999999	-43.12265000
1.19999999	-44.92325000
1.23999999	-50.31281000
1.27999999	-52.10730000
1.31999999	-50.31281000
1.35999999	-41.32816000
1.39999999	-32.34352000
1.43999999	-26.95395000
1.47999999	-21.55827000
1.51999999	-16.16870000
1.55999999	-12.57363000
1.59999999	-10.77914000
1.63999999	-7.18405700
1.67999999	-3.58897700
1.71999999	0.00000000
1.75999999	5.38956800
1.79999999	12.57363000
1.83999999	21.55827000
1.87999999	32.34352000
1.91999999	43.12265000
1.95999999	52.10730000
1.99999999	61.09195000
2.03999999	70.07660000
2.07999999	79.06125000
2.11999999	86.25141000
2.15999999	80.86184000
2.19999999	71.87719000
2.23999999	64.68703000
2.27999999	62.89254000
2.31999999	57.50298000
2.35999999	55.70238000
2.39999999	52.10730000
2.43999999	50.31281000
2.47999998	50.31281000
2.51999998	50.31281000
2.55999998	48.51222000
2.59999998	48.51222000
2.63999998	44.92325000
2.67999998	41.32816000
2.71999998	32.34352000
2.75999998	21.55827000
2.79999998	8.98464900
2.83999998	-3.58897700
2.87999998	-17.96930000
2.91999998	-30.54292000
2.95999998	-44.92325000
2.99999998	-61.09195000
3.03999998	-73.67168000
3.07999998	-84.45692000
3.11999998	-77.26676000
3.15999998	-66.48762000
3.19999998	-52.10730000
3.23999998	-43.12265000
3.27999998	-37.73308000
3.31999998	-35.93859000
3.35999998	-34.13800000
3.39999998	-35.93859000
3.43999998	-35.93859000
3.47999998	-37.73308000
3.51999998	-39.52757000
3.55999998	-44.92325000
3.59999998	-46.71774000
3.63999998	-50.31281000
3.67999998	-50.31281000
3.71999998	-48.51222000
3.75999998	-43.12265000
3.79999998	-35.93859000
3.83999998	-28.74844000
3.87999998	-21.55827000
3.91999998	-17.96930000
3.95999998	-8.98464900
3.99999998	-14.37422000
4.03999998	-19.76379000
4.07999998	-5.38956800
4.11999997	7.18405700
4.15999997	5.38956800
4.19999997	7.18405700
4.23999997	16.16870000
4.27999997	30.54292000
4.31999997	43.12265000
4.35999997	50.31281000
4.39999997	59.29746000
4.43999997	68.28211000
4.47999997	75.47227000
4.51999997	80.86184000
4.55999997	82.65633000
4.59999997	73.67168000
4.63999997	64.68703000
4.67999997	61.09195000
4.71999997	57.50298000
4.75999997	55.70238000
4.79999997	53.90789000
4.83999997	50.31281000
4.87999997	52.10730000
4.91999997	50.31281000
4.95999997	48.51222000
4.99999997	48.51222000
5.03999997	46.71774000
5.07999997	43.12265000
5.11999997	35.93859000
5.15999997	28.74844000
5.19999997	16.16870000
5.23999997	3.58897700
5.27999997	-10.77914000
5.31999997	-25.15336000
5.35999997	-39.52757000
5.39999997	-53.90789000
5.43999997	-68.28211000
5.47999997	-79.06125000
5.51999997	-82.65633000
5.55999997	-73.67168000
5.59999997	-59.29746000
5.63999997	-46.71774000
5.67999997	-35.93859000
5.71999997	-34.13800000
5.75999996	-30.54292000
5.79999996	-32.34352000
5.83999996	-34.13800000
5.87999996	-35.93859000
5.91999996	-35.93859000
5.95999996	-39.52757000
5.99999996	-44.92325000
6.03999996	-50.31281000
6.07999996	-50.31281000
6.11999996	-48.51222000
6.15999996	-44.92325000
6.19999996	-39.52757000
6.23999996	-30.54292000
6.27999996	-23.35887000
6.31999996	-17.96930000
6.35999996	-14.37422000
6.39999996	-12.57363000
6.43999996	-10.77914000
6.47999996	-8.98464900
6.51999996	-5.38956800
6.55999996	-1.79448800
6.59999996	3.58897700
6.63999996	12.57363000
6.67999996	23.35887000
6.71999996	34.13800000
6.75999996	46.71774000
6.79999996	57.50298000
6.83999996	68.28211000
6.87999996	73.67168000
6.91999996	84.45692000
6.95999996	84.45692000
6.99999996	75.47227000
7.03999996	70.07660000
7.07999996	62.89254000
7.11999996	59.29746000
7.15999996	57.50298000
7.19999996	53.90789000
7.23999996	50.31281000
7.27999996	52.10730000
7.31999996	50.31281000
7.35999996	48.51222000
7.39999996	50.31281000
7.43999995	48.51222000
7.47999995	46.71774000
7.51999995	41.32816000
7.55999995	32.34352000
7.59999995	21.55827000
7.63999995	7.18405700
7.67999995	-7.18405700
7.71999995	-21.55827000
7.75999995	-35.93859000
7.79999995	-50.31281000
7.83999995	-64.68703000
7.87999995	-77.26676000
7.91999995	-86.25141000
7.95999995	-73.67168000
7.99999995	-62.89254000
8.03999995	-44.92325000
8.07999995	-39.52757000
8.11999995	-34.13800000
8.15999995	-32.34352000
8.19999995	-34.13800000
8.23999995	-34.13800000
8.27999995	-37.73308000
8.31999995	-37.73308000
8.35999995	-41.32816000
8.39999995	-43.12265000
8.43999995	-46.71774000
8.47999995	-50.31281000
8.51999995	-52.10730000
8.55999995	-46.71774000
8.59999995	-39.52757000
8.63999995	-32.34352000
8.67999995	-25.15336000
8.71999995	-17.96930000
8.75999995	-14.37422000
8.79999995	-12.57363000
8.83999995	-10.77914000
8.87999995	-12.57363000
8.91999995	-5.38956800
8.95999995	-3.58897700
8.99999995	5.38956800
9.03999995	14.37422000
9.07999994	23.35887000
9.11999994	32.34352000
9.15999994	43.12265000
9.19999994	53.90789000
9.23999994	64.68703000
9.27999994	71.87719000
9.31999994	79.06125000
9.35999994	84.45692000
9.39999994	80.86184000
9.43999994	71.87719000
9.47999994	61.09195000
9.51999994	61.09195000
9.55999994	55.70238000
9.59999994	53.90789000
9.63999994	50.31281000
9.67999994	50.31281000
9.71999994	50.31281000
9.75999994	50.31281000
9.79999994	48.51222000
9.83999994	48.51222000
9.87999994	46.71774000
9.91999994	41.32816000
9.95999994	32.34352000
9.99999994	21.55827000
10.03999994	7.18405700
10.07999994	-5.38956800
10.11999994	-19.76379000
10.15999994	-32.34352000
10.19999994	-46.71774000
10.23999994	-62.89254000
10.27999994	-77.26676000
10.31999994	-82.65633000
10.35999994	-80.86184000
10.39999994	-64.68703000
10.43999994	-53.90789000
10.47999994	-46.71774000
10.51999994	-52.10730000
10.55999994	-66.48762000
10.59999994	-61.09195000
10.63999994	-41.32816000
10.67999994	-34.13800000
10.71999993	-32.34352000
10.75999993	-21.55827000
10.79999993	-1.79448800
10.83999993	1.79448800
10.87999993	-12.57363000
10.91999993	-35.93859000
10.95999993	-44.92325000
10.99999993	-43.12265000
11.03999993	-35.93859000
11.07999993	-39.52757000
11.11999993	-43.12265000
11.15999993	-34.13800000
11.19999993	-17.96930000
11.23999993	-14.37422000
11.27999993	-17.96930000
11.31999993	-19.76379000
11.35999993	-12.57363000
11.39999993	-1.79448800
11.43999993	7.18405700
11.47999993	14.37422000
11.51999993	23.35887000
11.55999993	35.93859000
11.59999993	50.31281000
11.63999993	62.89254000
11.67999993	73.67168000
11.71999993	80.86184000
11.75999993	93.44157000
11.79999993	93.44157000
11.83999993	89.84650000
11.87999993	77.26676000
11.91999993	68.28211000
11.95999993	61.09195000
11.99999993	55.70238000
12.03999993	48.51222000
12.07999993	43.12265000
12.11999993	35.93859000
12.15999993	35.93859000
12.19999993	41.32816000
12.23999993	46.71774000
12.27999993	44.92325000
12.31999993	43.12265000
12.35999992	35.93859000
12.39999992	26.95395000
12.43999992	14.37422000
12.47999992	-3.58897700
12.51999992	-17.96930000
12.55999992	-32.34352000
12.59999992	-43.12265000
12.63999992	-57.50298000
12.67999992	-66.48762000
12.71999992	-75.47227000
12.75999992	-79.06125000
12.79999992	-59.29746000
12.83999992	-46.71774000
12.87999992	-35.93859000
12.91999992	-35.93859000
12.95999992	-35.93859000
12.99999992	-35.93859000
13.03999992	-37.73308000
13.07999992	-41.32816000
13.11999992	-46.71774000
13.15999992	-44.92325000
13.19999992	-46.71774000
13.23999992	-50.31281000
13.27999992	-52.10730000
13.31999992	-52.10730000
13.35999992	-50.31281000
13.39999992	-43.12265000
13.43999992	-34.13800000
13.47999992	-26.95395000
13.51999992	-19.76379000
13.55999992	-14.37422000
13.59999992	-10.77914000
13.63999992	-10.77914000
13.67999992	-8.98464900
13.71999992	-5.38956800
13.75999992	0.00000000
13.79999992	8.98464900
13.83999992	12.57363000
13.87999992	10.77914000
13.91999992	28.74844000
13.95999992	46.71774000
13.99999991	52.10730000
14.03999991	53.90789000
14.07999991	57.50298000
14.11999991	70.07660000
14.15999991	79.06125000
14.19999991	79.06125000
14.23999991	71.87719000
14.27999991	68.28211000
14.31999991	64.68703000
14.35999991	59.29746000
14.39999991	57.50298000
14.43999991	57.50298000
14.47999991	52.10730000
14.51999991	52.10730000
14.55999991	52.10730000
14.59999991	50.31281000
14.63999991	50.31281000
14.67999991	46.71774000
14.71999991	43.12265000
14.75999991	35.93859000
14.79999991	26.95395000
14.83999991	14.37422000
14.87999991	0.00000000
14.91999991	-14.37422000
14.95999991	-28.74844000
14.99999991	-43.12265000
15.03999991	-57.50298000
15.07999991	-70.07660000
15.11999991	-80.86184000
15.15999991	-86.25141000
15.19999991	-73.67168000
15.23999991	-59.29746000
15.27999991	-44.92325000
15.31999991	-37.73308000
15.35999991	-32.34352000
15.39999991	-30.54292000
15.43999991	-32.34352000
15.47999991	-32.34352000
15.51999991	-37.73308000
15.55999991	-39.52757000
15.59999991	-41.32816000
15.63999990	-46.71774000
15.67999990	-52.10730000
15.71999990	-52.10730000
15.75999990	-50.31281000
15.79999990	-46.71774000
15.83999990	-39.52757000
15.87999990	-30.54292000
15.91999990	-23.35887000
15.95999990	-17.96930000
15.99999990	-16.16870000
16.03999990	-14.37422000
16.07999990	-10.77914000
16.11999990	-8.98464900
16.15999990	-5.38956800
16.19999990	-1.79448800
16.23999990	5.38956800
16.27999990	14.37422000
16.31999990	25.15336000
16.35999990	35.93859000
16.39999990	46.71774000
16.43999990	57.50298000
16.47999990	66.48762000
16.51999990	73.67168000
16.55999990	80.86184000
16.59999990	80.86184000
16.63999990	75.47227000
16.67999990	70.07660000
16.71999990	61.09195000
16.75999990	57.50298000
16.79999990	55.70238000
16.83999990	52.10730000
16.87999990	50.31281000
16.91999990	50.31281000
16.95999990	48.51222000
16.99999990	48.51222000
17.03999990	48.51222000
17.07999990	48.51222000
17.11999990	44.92325000
17.15999990	39.52757000
17.19999990	32.34352000
17.23999990	19.76379000
17.27999989	7.18405700
17.31999989	-7.18405700
17.35999989	-21.55827000
17.39999989	-35.93859000
17.43999989	-50.31281000
17.47999989	-64.68703000
17.51999989	-77.26676000
17.55999989	-86.25141000
17.59999989	-77.26676000
17.63999989	-62.89254000
17.67999989	-48.51222000
17.71999989	-41.32816000
17.75999989	-35.93859000
17.79999989	-35.93859000
17.83999989	-35.93859000
17.87999989	-35.93859000
17.91999989	-37.73308000
17.95999989	-39.52757000
17.99999989	-43.12265000
18.03999989	-43.12265000
18.07999989	-50.31281000
18.11999989	-50.31281000
18.15999989	-50.31281000
18.19999989	-46.71774000
18.23999989	-41.32816000
18.27999989	-32.34352000
18.31999989	-25.15336000
18.35999989	-19.76379000
18.39999989	-16.16870000
18.43999989	-12.57363000
18.47999989	-12.57363000
18.51999989	-8.98464900
18.55999989	-7.18405700
18.59999989	-3.58897700
18.63999989	3.58897700
18.67999989	12.57363000
18.71999989	17.96930000
18.75999989	30.54292000
18.79999989	43.12265000
18.83999989	53.90789000
18.87999989	64.68703000
18.91999989	73.67168000
18.95999988	79.06125000
18.99999988	86.25141000
19.03999988	80.86184000
19.07999988	73.67168000
19.11999988	62.89254000
19.15999988	61.09195000
19.19999988	55.70238000
19.23999988	53.90789000
19.27999988	52.10730000
19.31999988	50.31281000
19.35999988	50.31281000
19.39999988	50.31281000
19.43999988	50.31281000
19.47999988	50.31281000
19.51999988	48.51222000
19.55999988	41.32816000
19.59999988	34.13800000
19.63999988	21.55827000
19.67999988	8.98464900
19.71999988	-5.38956800
19.75999988	-19.76379000
19.79999988	-34.13800000
19.83999988	-48.51222000
19.87999988	-64.68703000
19.91999988	-75.47227000
19.95999988	-86.25141000
19.99999988	-77.26676000
20.03999988	-66.48762000
20.07999988	-50.31281000
20.11999988	-43.12265000
20.15999988	-35.93859000
20.19999988	-34.13800000
20.23999988	-32.34352000
20.27999988	-34.13800000
20.31999988	-32.34352000
20.35999988	-35.93859000
20.39999988	-43.12265000
20.43999988	-46.71774000
20.47999988	-44.92325000
20.51999988	-46.71774000
20.55999988	-50.31281000
20.59999987	-48.51222000
20.63999987	-41.32816000
20.67999987	-30.54292000
20.71999987	-23.35887000
20.75999987	-19.76379000
20.79999987	-14.37422000
20.83999987	-14.37422000
20.87999987	-10.77914000
20.91999987	-8.98464900
20.95999987	-7.18405700
20.99999987	-5.38956800
21.03999987	0.00000000
21.07999987	7.18405700
21.11999987	17.96930000
21.15999987	28.74844000
21.19999987	41.32816000
21.23999987	52.10730000
21.27999987	62.89254000
21.31999987	71.87719000
21.35999987	77.26676000
21.39999987	84.45692000
21.43999987	82.65633000
21.47999987	77.26676000
21.51999987	64.68703000
21.55999987	59.29746000
21.59999987	57.50298000
21.63999987	55.70238000
21.67999987	50.31281000
21.71999987	52.10730000
21.75999987	48.51222000
21.79999987	50.31281000
21.83999987	48.51222000
21.87999987	48.51222000
21.91999987	46.71774000
21.95999987	43.12265000
21.99999987	34.13800000
22.03999987	25.15336000
22.07999987	12.57363000
22.11999987	-3.58897700
22.15999987	-17.96930000
22.19999987	-30.54292000
22.23999986	-44.92325000
22.27999986	-61.09195000
22.31999986	-73.67168000
22.35999986	-80.86184000
22.39999986	-79.06125000
22.43999986	-64.68703000
22.47999986	-53.90789000
22.51999986	-39.52757000
22.55999986	-34.13800000
22.59999986	-28.74844000
22.63999986	-30.54292000
22.67999986	-30.54292000
22.71999986	-32.34352000
22.75999986	-32.34352000
22.79999986	-37.73308000
22.83999986	-41.32816000
22.87999986	-46.71774000
22.91999986	-50.31281000
22.95999986	-50.31281000
22.99999986	-48.51222000
23.03999986	-41.32816000
23.07999986	-34.13800000
23.11999986	-25.15336000
23.15999986	-19.76379000
23.19999986	-12.57363000
23.23999986	-12.57363000
23.27999986	-8.98464900
23.31999986	-10.77914000
23.35999986	-7.18405700
23.39999986	-5.38956800
23.43999986	0.00000000
23.47999986	7.18405700
23.51999986	17.96930000
23.55999986	30.54292000
23.59999986	43.12265000
23.63999986	57.50298000
23.67999986	68.28211000
23.71999986	62.89254000
23.75999986	75.47227000
23.79999986	91.64098000
23.83999986	88.04590000
23.87999985	71.87719000
23.91999985	61.09195000
23.95999985	59.29746000
23.99999985	57.50298000
24.03999985	55.70238000
24.07999985	50.31281000
24.11999985	52.10730000
24.15999985	50.31281000
24.19999985	48.51222000
24.23999985	50.31281000
24.27999985	52.10730000
24.31999985	48.51222000
24.35999985	44.92325000
24.39999985	35.93859000
24.43999985	28.74844000
24.47999985	12.57363000
24.51999985	-1.79448800
24.55999985	-16.16870000
24.59999985	-30.54292000
24.63999985	-43.12265000
24.67999985	-59.29746000
24.71999985	-71.87719000
24.75999985	-82.65633000
24.79999985	-79.06125000
24.83999985	-68.28211000
24.87999985	-53.90789000
24.91999985	-44.92325000
24.95999985	-37.73308000
24.99999985	-34.13800000
25.03999985	-32.34352000
25.07999985	-32.34352000
25.11999985	-35.93859000
25.15999985	-37.73308000
25.19999985	-39.52757000
25.23999985	-43.12265000
25.27999985	-44.92325000
25.31999985	-46.71774000
25.35999985	-52.10730000
25.39999985	-48.51222000
25.43999985	-43.12265000
25.47999985	-35.93859000
25.51999984	-26.95395000
25.55999984	-19.76379000
25.59999984	-14.37422000
25.63999984	-12.57363000
25.67999984	-10.77914000
25.71999984	-7.18405700
25.75999984	-3.58897700
25.79999984	-1.79448800
25.83999984	3.58897700
25.87999984	10.77914000
25.91999984	19.76379000
25.95999984	30.54292000
25.99999984	41.32816000
26.03999984	50.31281000
26.07999984	59.29746000
26.11999984	70.07660000
26.15999984	75.47227000
26.19999984	80.86184000
26.23999984	79.06125000
26.27999984	71.87719000
26.31999984	66.48762000
26.35999984	61.09195000
26.39999984	57.50298000
26.43999984	55.70238000
26.47999984	52.10730000
26.51999984	50.31281000
26.55999984	50.31281000
26.59999984	50.31281000
26.63999984	48.51222000
26.67999984	48.51222000
26.71999984	46.71774000
26.75999984	43.12265000
26.79999984	34.13800000
26.83999984	25.15336000
26.87999984	12.57363000
26.91999984	0.00000000
26.95999984	-14.37422000
26.99999984	-26.95395000
27.03999984	-41.32816000
27.07999984	-55.70238000
27.11999984	-68.28211000
27.15999983	-79.06125000
27.19999983	-82.65633000
27.23999983	-71.87719000
27.27999983	-57.50298000
27.31999983	-43.12265000
27.35999983	-39.52757000
27.39999983	-35.93859000
27.43999983	-35.93859000
27.47999983	-35.93859000
27.51999983	-39.52757000
27.55999983	-37.73308000
27.59999983	-37.73308000
27.63999983	-41.32816000
27.67999983	-44.92325000
27.71999983	-48.51222000
27.75999983	-50.31281000
27.79999983	-46.71774000
27.83999983	-43.12265000
27.87999983	-35.93859000
27.91999983	-26.95395000
27.95999983	-21.55827000
27.99999983	-16.16870000
28.03999983	-14.37422000
28.07999983	-10.77914000
28.11999983	-10.77914000
28.15999983	-8.98464900
28.19999983	-5.38956800
28.23999983	0.00000000
28.27999983	5.38956800
28.31999983	14.37422000
28.35999983	25.15336000
28.39999983	35.93859000
28.43999983	48.51222000
28.47999983	57.50298000
28.51999983	70.07660000
28.55999983	77.26676000
28.59999983	80.86184000
28.63999983	84.45692000
28.67999983	71.87719000
28.71999983	68.28211000
28.75999983	64.68703000
28.79999982	59.29746000
28.83999982	55.70238000
28.87999982	52.10730000
28.91999982	50.31281000
28.95999982	50.31281000
28.99999982	48.51222000
29.03999982	48.51222000
29.07999982	48.51222000
29.11999982	46.71774000
29.15999982	43.12265000
29.19999982	35.93859000
29.23999982	26.95395000
29.27999982	14.37422000
29.31999982	0.00000000
29.35999982	-14.37422000
29.39999982	-26.95395000
29.43999982	-41.32816000
29.47999982	-55.70238000
29.51999982	-68.28211000
29.55999982	-80.86184000
29.59999982	-79.06125000
29.63999982	-70.07660000
29.67999982	-55.70238000
29.71999982	-44.92325000
29.75999982	-37.73308000
29.79999982	-34.13800000
29.83999982	-32.34352000
29.87999982	-32.34352000
29.91999982	-34.13800000
29.95999982	-35.93859000
29.99999982	-37.73308000
30.03999982	-43.12265000
30.07999982	-44.92325000
30.11999982	-50.31281000
30.15999982	-52.10730000
30.19999982	-44.92325000
30.23999982	-43.12265000
30.27999982	-39.52757000
30.31999982	-30.54292000
30.35999982	-21.55827000
30.39999982	-16.16870000
30.43999982	-12.57363000
30.47999981	-12.57363000
30.51999981	-8.98464900
30.55999981	-7.18405700
30.59999981	-3.58897700
30.63999981	0.00000000
30.67999981	5.38956800
30.71999981	14.37422000
30.75999981	25.15336000
30.79999981	35.93859000
30.83999981	46.71774000
30.87999981	55.70238000
30.91999981	64.68703000
30.95999981	73.67168000
30.99999981	80.86184000
31.03999981	82.65633000
31.07999981	79.06125000
31.11999981	70.07660000
31.15999981	61.09195000
31.19999981	61.09195000
31.23999981	55.70238000
31.27999981	52.10730000
31.31999981	50.31281000
31.35999981	50.31281000
31.39999981	48.51222000
31.43999981	48.51222000
31.47999981	48.51222000
31.51999981	46.71774000
31.55999981	43.12265000
31.59999981	35.93859000
31.63999981	28.74844000
31.67999981	16.16870000
31.71999981	1.79448800
