Time	Channel A
(us)	(mV)

0.00000000	-66.48762000
0.04000000	-73.67168000
0.08000000	-75.47227000
0.12000000	-77.26676000
0.16000000	-71.87719000
0.20000000	-66.48762000
0.24000000	-61.09195000
0.28000000	-55.70238000
0.32000000	-50.31281000
0.36000000	-46.71774000
0.40000000	-46.71774000
0.44000000	-43.12265000
0.48000000	-41.32816000
0.52000000	-39.52757000
0.56000000	-37.73308000
0.60000000	-35.93859000
0.64000000	-30.54292000
0.68000000	-28.74844000
0.72000000	-23.35887000
0.76000000	-17.96930000
0.80000000	-8.98464900
0.83999999	-1.79448800
0.87999999	5.38956800
0.91999999	14.37422000
0.95999999	23.35887000
0.99999999	32.34352000
1.03999999	43.12265000
1.07999999	55.70238000
1.11999999	64.68703000
1.15999999	77.26676000
1.19999999	86.25141000
1.23999999	91.64098000
1.27999999	91.64098000
1.31999999	89.84650000
1.35999999	86.25141000
1.39999999	82.65633000
1.43999999	75.47227000
1.47999999	68.28211000
1.51999999	59.29746000
1.55999999	46.71774000
1.59999999	43.12265000
1.63999999	32.34352000
1.67999999	28.74844000
1.71999999	19.76379000
1.75999999	10.77914000
1.79999999	0.00000000
1.83999999	-10.77914000
1.87999999	-21.55827000
1.91999999	-32.34352000
1.95999999	-44.92325000
1.99999999	-57.50298000
2.03999999	-66.48762000
2.07999999	-71.87719000
2.11999999	-75.47227000
2.15999999	-75.47227000
2.19999999	-71.87719000
2.23999999	-68.28211000
2.27999999	-61.09195000
2.31999999	-57.50298000
2.35999999	-53.90789000
2.39999999	-50.31281000
2.43999999	-46.71774000
2.47999998	-44.92325000
2.51999998	-43.12265000
2.55999998	-41.32816000
2.59999998	-37.73308000
2.63999998	-35.93859000
2.67999998	-32.34352000
2.71999998	-28.74844000
2.75999998	-23.35887000
2.79999998	-14.37422000
2.83999998	-7.18405700
2.87999998	-5.38956800
2.91999998	0.00000000
2.95999998	10.77914000
2.99999998	21.55827000
3.03999998	28.74844000
3.07999998	37.73308000
3.11999998	50.31281000
3.15999998	64.68703000
3.19999998	77.26676000
3.23999998	84.45692000
3.27999998	89.84650000
3.31999998	93.44157000
3.35999998	91.64098000
3.39999998	89.84650000
3.43999998	84.45692000
3.47999998	77.26676000
3.51999998	70.07660000
3.55999998	62.89254000
3.59999998	55.70238000
3.63999998	46.71774000
3.67999998	35.93859000
3.71999998	28.74844000
3.75999998	21.55827000
3.79999998	12.57363000
3.83999998	3.58897700
3.87999998	-5.38956800
3.91999998	-16.16870000
3.95999998	-28.74844000
3.99999998	-41.32816000
4.03999998	-53.90789000
4.07999998	-64.68703000
4.11999997	-71.87719000
4.15999997	-75.47227000
4.19999997	-77.26676000
4.23999997	-77.26676000
4.27999997	-71.87719000
4.31999997	-66.48762000
4.35999997	-61.09195000
4.39999997	-57.50298000
4.43999997	-53.90789000
4.47999997	-50.31281000
4.51999997	-44.92325000
4.55999997	-43.12265000
4.59999997	-41.32816000
4.63999997	-39.52757000
4.67999997	-35.93859000
4.71999997	-34.13800000
4.75999997	-30.54292000
4.79999997	-25.15336000
4.83999997	-19.76379000
4.87999997	-14.37422000
4.91999997	-7.18405700
4.95999997	0.00000000
4.99999997	7.18405700
5.03999997	14.37422000
5.07999997	25.15336000
5.11999997	34.13800000
5.15999997	44.92325000
5.19999997	57.50298000
5.23999997	68.28211000
5.27999997	79.06125000
5.31999997	86.25141000
5.35999997	91.64098000
5.39999997	91.64098000
5.43999997	89.84650000
5.47999997	86.25141000
5.51999997	80.86184000
5.55999997	71.87719000
5.59999997	66.48762000
5.63999997	59.29746000
5.67999997	50.31281000
5.71999997	43.12265000
5.75999996	34.13800000
5.79999996	25.15336000
5.83999996	17.96930000
5.87999996	8.98464900
5.91999996	0.00000000
5.95999996	-10.77914000
5.99999996	-21.55827000
6.03999996	-34.13800000
6.07999996	-46.71774000
6.11999996	-57.50298000
6.15999996	-66.48762000
6.19999996	-70.07660000
6.23999996	-71.87719000
6.27999996	-71.87719000
6.31999996	-66.48762000
6.35999996	-62.89254000
6.39999996	-57.50298000
6.43999996	-52.10730000
6.47999996	-50.31281000
6.51999996	-57.50298000
6.55999996	-53.90789000
6.59999996	-37.73308000
6.63999996	-34.13800000
6.67999996	-39.52757000
6.71999996	-41.32816000
6.75999996	-37.73308000
6.79999996	-30.54292000
6.83999996	-28.74844000
6.87999996	-25.15336000
6.91999996	-17.96930000
6.95999996	-10.77914000
6.99999996	-5.38956800
7.03999996	1.79448800
7.07999996	12.57363000
7.11999996	17.96930000
7.15999996	26.95395000
7.19999996	39.52757000
7.23999996	52.10730000
7.27999996	64.68703000
7.31999996	75.47227000
7.35999996	86.25141000
7.39999996	93.44157000
7.43999995	95.23605000
7.47999995	93.44157000
7.51999995	89.84650000
7.55999995	86.25141000
7.59999995	77.26676000
7.63999995	70.07660000
7.67999995	62.89254000
7.71999995	57.50298000
7.75999995	46.71774000
7.79999995	39.52757000
7.83999995	28.74844000
7.87999995	19.76379000
7.91999995	10.77914000
7.95999995	5.38956800
7.99999995	-5.38956800
8.03999995	-16.16870000
8.07999995	-30.54292000
8.11999995	-39.52757000
8.15999995	-52.10730000
8.19999995	-64.68703000
8.23999995	-71.87719000
8.27999995	-73.67168000
8.31999995	-71.87719000
8.35999995	-71.87719000
8.39999995	-70.07660000
8.43999995	-66.48762000
8.47999995	-62.89254000
8.51999995	-57.50298000
8.55999995	-53.90789000
8.59999995	-50.31281000
8.63999995	-46.71774000
8.67999995	-43.12265000
8.71999995	-41.32816000
8.75999995	-37.73308000
8.79999995	-35.93859000
8.83999995	-32.34352000
8.87999995	-28.74844000
8.91999995	-23.35887000
8.95999995	-17.96930000
8.99999995	-10.77914000
9.03999995	-5.38956800
9.07999994	3.58897700
9.11999994	10.77914000
9.15999994	17.96930000
9.19999994	26.95395000
9.23999994	35.93859000
9.27999994	50.31281000
9.31999994	59.29746000
9.35999994	71.87719000
9.39999994	82.65633000
9.43999994	88.04590000
9.47999994	91.64098000
9.51999994	91.64098000
9.55999994	88.04590000
9.59999994	84.45692000
9.63999994	77.26676000
9.67999994	70.07660000
9.71999994	64.68703000
9.75999994	55.70238000
9.79999994	48.51222000
9.83999994	39.52757000
9.87999994	30.54292000
9.91999994	23.35887000
9.95999994	14.37422000
9.99999994	5.38956800
10.03999994	-3.58897700
10.07999994	-14.37422000
10.11999994	-25.15336000
10.15999994	-37.73308000
10.19999994	-50.31281000
10.23999994	-61.09195000
10.27999994	-68.28211000
10.31999994	-73.67168000
10.35999994	-73.67168000
10.39999994	-71.87719000
10.43999994	-70.07660000
10.47999994	-66.48762000
10.51999994	-62.89254000
10.55999994	-57.50298000
10.59999994	-53.90789000
10.63999994	-52.10730000
10.67999994	-48.51222000
10.71999993	-44.92325000
10.75999993	-43.12265000
10.79999993	-39.52757000
10.83999993	-37.73308000
10.87999993	-35.93859000
10.91999993	-30.54292000
10.95999993	-25.15336000
10.99999993	-21.55827000
11.03999993	-14.37422000
11.07999993	-8.98464900
11.11999993	0.00000000
11.15999993	5.38956800
11.19999993	14.37422000
11.23999993	23.35887000
11.27999993	30.54292000
11.31999993	43.12265000
11.35999993	52.10730000
11.39999993	61.09195000
11.43999993	75.47227000
11.47999993	84.45692000
11.51999993	93.44157000
11.55999993	93.44157000
11.59999993	89.84650000
11.63999993	84.45692000
11.67999993	79.06125000
11.71999993	75.47227000
11.75999993	68.28211000
11.79999993	59.29746000
11.83999993	50.31281000
11.87999993	43.12265000
11.91999993	34.13800000
11.95999993	25.15336000
11.99999993	16.16870000
12.03999993	8.98464900
12.07999993	0.00000000
12.11999993	-10.77914000
12.15999993	-21.55827000
12.19999993	-32.34352000
12.23999993	-44.92325000
12.27999993	-57.50298000
12.31999993	-66.48762000
12.35999992	-71.87719000
12.39999992	-73.67168000
12.43999992	-73.67168000
12.47999992	-71.87719000
12.51999992	-66.48762000
12.55999992	-62.89254000
12.59999992	-57.50298000
12.63999992	-53.90789000
12.67999992	-50.31281000
12.71999992	-44.92325000
12.75999992	-39.52757000
12.79999992	-35.93859000
12.83999992	-43.12265000
12.87999992	-43.12265000
12.91999992	-35.93859000
12.95999992	-30.54292000
12.99999992	-26.95395000
13.03999992	-25.15336000
13.07999992	-19.76379000
13.11999992	-10.77914000
13.15999992	-3.58897700
13.19999992	3.58897700
13.23999992	12.57363000
13.27999992	21.55827000
13.31999992	30.54292000
13.35999992	43.12265000
13.39999992	53.90789000
13.43999992	64.68703000
13.47999992	77.26676000
13.51999992	86.25141000
13.55999992	91.64098000
13.59999992	91.64098000
13.63999992	89.84650000
13.67999992	88.04590000
13.71999992	82.65633000
13.75999992	77.26676000
13.79999992	70.07660000
13.83999992	61.09195000
13.87999992	53.90789000
13.91999992	46.71774000
13.95999992	35.93859000
13.99999991	28.74844000
14.03999991	19.76379000
14.07999991	10.77914000
14.11999991	1.79448800
14.15999991	-7.18405700
14.19999991	-19.76379000
14.23999991	-30.54292000
14.27999991	-43.12265000
14.31999991	-55.70238000
14.35999991	-64.68703000
14.39999991	-71.87719000
14.43999991	-73.67168000
14.47999991	-73.67168000
14.51999991	-71.87719000
14.55999991	-68.28211000
14.59999991	-64.68703000
14.63999991	-61.09195000
14.67999991	-57.50298000
14.71999991	-52.10730000
14.75999991	-48.51222000
14.79999991	-43.12265000
14.83999991	-39.52757000
14.87999991	-37.73308000
14.91999991	-37.73308000
14.95999991	-34.13800000
14.99999991	-30.54292000
15.03999991	-26.95395000
15.07999991	-21.55827000
15.11999991	-16.16870000
15.15999991	-10.77914000
15.19999991	-5.38956800
15.23999991	1.79448800
15.27999991	8.98464900
15.31999991	17.96930000
15.35999991	26.95395000
15.39999991	37.73308000
15.43999991	50.31281000
15.47999991	62.89254000
15.51999991	75.47227000
15.55999991	84.45692000
15.59999991	91.64098000
15.63999990	93.44157000
15.67999990	91.64098000
15.71999990	89.84650000
15.75999990	84.45692000
15.79999990	75.47227000
15.83999990	70.07660000
15.87999990	61.09195000
15.91999990	53.90789000
15.95999990	44.92325000
15.99999990	37.73308000
16.03999990	28.74844000
16.07999990	21.55827000
16.11999990	12.57363000
16.15999990	3.58897700
16.19999990	-5.38956800
16.23999990	-16.16870000
16.27999990	-26.95395000
16.31999990	-37.73308000
16.35999990	-59.29746000
16.39999990	-71.87719000
16.43999990	-66.48762000
16.47999990	-66.48762000
16.51999990	-73.67168000
16.55999990	-79.06125000
16.59999990	-71.87719000
16.63999990	-64.68703000
16.67999990	-57.50298000
16.71999990	-55.70238000
16.75999990	-48.51222000
16.79999990	-44.92325000
16.83999990	-43.12265000
16.87999990	-43.12265000
16.91999990	-39.52757000
16.95999990	-41.32816000
16.99999990	-37.73308000
17.03999990	-35.93859000
17.07999990	-28.74844000
17.11999990	-26.95395000
17.15999990	-21.55827000
17.19999990	-14.37422000
17.23999990	-7.18405700
17.27999989	0.00000000
17.31999989	8.98464900
17.35999989	19.76379000
17.39999989	28.74844000
17.43999989	35.93859000
17.47999989	48.51222000
17.51999989	61.09195000
17.55999989	71.87719000
17.59999989	82.65633000
17.63999989	89.84650000
17.67999989	91.64098000
17.71999989	89.84650000
17.75999989	88.04590000
17.79999989	84.45692000
17.83999989	77.26676000
17.87999989	70.07660000
17.91999989	64.68703000
17.95999989	57.50298000
17.99999989	50.31281000
18.03999989	37.73308000
18.07999989	28.74844000
18.11999989	21.55827000
18.15999989	14.37422000
18.19999989	5.38956800
18.23999989	-5.38956800
18.27999989	-14.37422000
18.31999989	-26.95395000
18.35999989	-39.52757000
18.39999989	-50.31281000
18.43999989	-61.09195000
18.47999989	-68.28211000
18.51999989	-73.67168000
18.55999989	-73.67168000
18.59999989	-73.67168000
18.63999989	-70.07660000
18.67999989	-66.48762000
18.71999989	-61.09195000
18.75999989	-57.50298000
18.79999989	-53.90789000
18.83999989	-48.51222000
18.87999989	-46.71774000
18.91999989	-43.12265000
18.95999988	-41.32816000
18.99999988	-37.73308000
19.03999988	-35.93859000
19.07999988	-32.34352000
19.11999988	-30.54292000
19.15999988	-28.74844000
19.19999988	-28.74844000
19.23999988	-37.73308000
19.27999988	-43.12265000
19.31999988	-21.55827000
19.35999988	7.18405700
19.39999988	17.96930000
19.43999988	28.74844000
19.47999988	57.50298000
19.51999988	89.84650000
19.55999988	106.01520000
19.59999988	104.22070000
19.63999988	95.23605000
19.67999988	93.44157000
19.71999988	97.03055000
19.75999988	91.64098000
19.79999988	75.47227000
19.83999988	61.09195000
19.87999988	61.09195000
19.91999988	66.48762000
19.95999988	57.50298000
19.99999988	44.92325000
20.03999988	34.13800000
20.07999988	30.54292000
20.11999988	28.74844000
20.15999988	21.55827000
20.19999988	10.77914000
20.23999988	3.58897700
20.27999988	-3.58897700
20.31999988	-10.77914000
20.35999988	-21.55827000
20.39999988	-34.13800000
20.43999988	-44.92325000
20.47999988	-52.10730000
20.51999988	-55.70238000
20.55999988	-59.29746000
20.59999987	-62.89254000
20.63999987	-66.48762000
20.67999987	-70.07660000
20.71999987	-66.48762000
20.75999987	-66.48762000
20.79999987	-66.48762000
20.83999987	-64.68703000
20.87999987	-61.09195000
20.91999987	-52.10730000
20.95999987	-46.71774000
20.99999987	-41.32816000
21.03999987	-37.73308000
21.07999987	-34.13800000
21.11999987	-28.74844000
21.15999987	-26.95395000
21.19999987	-28.74844000
21.23999987	-28.74844000
21.27999987	-17.96930000
21.31999987	-10.77914000
21.35999987	0.00000000
21.39999987	10.77914000
21.43999987	17.96930000
21.47999987	30.54292000
21.51999987	37.73308000
21.55999987	48.51222000
21.59999987	59.29746000
21.63999987	64.68703000
21.67999987	75.47227000
21.71999987	82.65633000
21.75999987	86.25141000
21.79999987	86.25141000
21.83999987	84.45692000
21.87999987	80.86184000
21.91999987	77.26676000
21.95999987	71.87719000
21.99999987	64.68703000
22.03999987	57.50298000
22.07999987	52.10730000
22.11999987	44.92325000
22.15999987	37.73308000
22.19999987	28.74844000
22.23999986	21.55827000
22.27999986	12.57363000
22.31999986	1.79448800
22.35999986	-8.98464900
22.39999986	-21.55827000
22.43999986	-32.34352000
22.47999986	-43.12265000
22.51999986	-53.90789000
22.55999986	-61.09195000
22.59999986	-68.28211000
22.63999986	-71.87719000
22.67999986	-73.67168000
22.71999986	-70.07660000
22.75999986	-66.48762000
22.79999986	-68.28211000
22.83999986	-66.48762000
22.87999986	-57.50298000
22.91999986	-52.10730000
22.95999986	-46.71774000
22.99999986	-43.12265000
23.03999986	-41.32816000
23.07999986	-35.93859000
23.11999986	-34.13800000
23.15999986	-32.34352000
23.19999986	-28.74844000
23.23999986	-26.95395000
23.27999986	-21.55827000
23.31999986	-14.37422000
23.35999986	-8.98464900
23.39999986	-1.79448800
23.43999986	5.38956800
23.47999986	14.37422000
23.51999986	21.55827000
23.55999986	28.74844000
23.59999986	37.73308000
23.63999986	50.31281000
23.67999986	62.89254000
23.71999986	73.67168000
23.75999986	84.45692000
23.79999986	89.84650000
23.83999986	89.84650000
23.87999985	89.84650000
23.91999985	86.25141000
23.95999985	80.86184000
23.99999985	75.47227000
24.03999985	70.07660000
24.07999985	62.89254000
24.11999985	53.90789000
24.15999985	44.92325000
24.19999985	35.93859000
24.23999985	28.74844000
24.27999985	19.76379000
24.31999985	10.77914000
24.35999985	0.00000000
24.39999985	-7.18405700
24.43999985	-19.76379000
24.47999985	-30.54292000
24.51999985	-43.12265000
24.55999985	-55.70238000
24.59999985	-64.68703000
24.63999985	-71.87719000
24.67999985	-71.87719000
24.71999985	-71.87719000
24.75999985	-68.28211000
24.79999985	-64.68703000
24.83999985	-62.89254000
24.87999985	-57.50298000
24.91999985	-53.90789000
24.95999985	-50.31281000
24.99999985	-46.71774000
25.03999985	-43.12265000
25.07999985	-41.32816000
25.11999985	-39.52757000
25.15999985	-37.73308000
25.19999985	-35.93859000
25.23999985	-30.54292000
25.27999985	-28.74844000
25.31999985	-23.35887000
25.35999985	-16.16870000
25.39999985	-10.77914000
25.43999985	-5.38956800
25.47999985	1.79448800
25.51999984	10.77914000
25.55999984	19.76379000
25.59999984	28.74844000
25.63999984	41.32816000
25.67999984	52.10730000
25.71999984	64.68703000
25.75999984	77.26676000
25.79999984	86.25141000
25.83999984	91.64098000
25.87999984	93.44157000
25.91999984	93.44157000
25.95999984	88.04590000
25.99999984	84.45692000
26.03999984	77.26676000
26.07999984	70.07660000
26.11999984	61.09195000
26.15999984	57.50298000
26.19999984	41.32816000
26.23999984	25.15336000
26.27999984	26.95395000
26.31999984	26.95395000
26.35999984	14.37422000
26.39999984	0.00000000
26.43999984	-10.77914000
26.47999984	-19.76379000
26.51999984	-28.74844000
26.55999984	-44.92325000
26.59999984	-57.50298000
26.63999984	-64.68703000
26.67999984	-71.87719000
26.71999984	-77.26676000
26.75999984	-77.26676000
26.79999984	-73.67168000
26.83999984	-71.87719000
26.87999984	-68.28211000
26.91999984	-61.09195000
26.95999984	-57.50298000
26.99999984	-52.10730000
27.03999984	-50.31281000
27.07999984	-44.92325000
27.11999984	-43.12265000
27.15999983	-39.52757000
27.19999983	-37.73308000
27.23999983	-35.93859000
27.27999983	-32.34352000
27.31999983	-28.74844000
27.35999983	-23.35887000
27.39999983	-16.16870000
27.43999983	-7.18405700
27.47999983	0.00000000
27.51999983	5.38956800
27.55999983	14.37422000
27.59999983	21.55827000
27.63999983	26.95395000
27.67999983	41.32816000
27.71999983	53.90789000
27.75999983	64.68703000
27.79999983	73.67168000
27.83999983	84.45692000
27.87999983	89.84650000
27.91999983	93.44157000
27.95999983	88.04590000
27.99999983	86.25141000
28.03999983	82.65633000
28.07999983	75.47227000
28.11999983	68.28211000
28.15999983	61.09195000
28.19999983	52.10730000
28.23999983	44.92325000
28.27999983	35.93859000
28.31999983	28.74844000
28.35999983	19.76379000
28.39999983	10.77914000
28.43999983	1.79448800
28.47999983	-7.18405700
28.51999983	-17.96930000
28.55999983	-30.54292000
28.59999983	-43.12265000
28.63999983	-53.90789000
28.67999983	-64.68703000
28.71999983	-71.87719000
28.75999983	-75.47227000
28.79999982	-77.26676000
28.83999982	-75.47227000
28.87999982	-71.87719000
28.91999982	-68.28211000
28.95999982	-62.89254000
28.99999982	-57.50298000
29.03999982	-53.90789000
29.07999982	-46.71774000
29.11999982	-43.12265000
29.15999982	-39.52757000
29.19999982	-39.52757000
29.23999982	-35.93859000
29.27999982	-34.13800000
29.31999982	-32.34352000
29.35999982	-28.74844000
29.39999982	-25.15336000
29.43999982	-19.76379000
29.47999982	-14.37422000
29.51999982	-7.18405700
29.55999982	-1.79448800
29.59999982	7.18405700
29.63999982	14.37422000
29.67999982	23.35887000
29.71999982	34.13800000
29.75999982	44.92325000
29.79999982	57.50298000
29.83999982	70.07660000
29.87999982	80.86184000
29.91999982	88.04590000
29.95999982	93.44157000
29.99999982	91.64098000
30.03999982	89.84650000
30.07999982	84.45692000
30.11999982	79.06125000
30.15999982	71.87719000
30.19999982	64.68703000
30.23999982	57.50298000
30.27999982	50.31281000
30.31999982	41.32816000
30.35999982	32.34352000
30.39999982	23.35887000
30.43999982	16.16870000
30.47999981	7.18405700
30.51999981	-1.79448800
30.55999981	-10.77914000
30.59999981	-23.35887000
30.63999981	-35.93859000
30.67999981	-48.51222000
30.71999981	-59.29746000
30.75999981	-68.28211000
30.79999981	-73.67168000
30.83999981	-75.47227000
30.87999981	-75.47227000
30.91999981	-71.87719000
30.95999981	-70.07660000
30.99999981	-62.89254000
31.03999981	-61.09195000
31.07999981	-59.29746000
31.11999981	-52.10730000
31.15999981	-50.31281000
31.19999981	-43.12265000
31.23999981	-39.52757000
31.27999981	-39.52757000
31.31999981	-39.52757000
31.35999981	-35.93859000
31.39999981	-32.34352000
31.43999981	-26.95395000
31.47999981	-21.55827000
31.51999981	-14.37422000
31.55999981	-7.18405700
31.59999981	0.00000000
31.63999981	7.18405700
31.67999981	14.37422000
31.71999981	23.35887000
