Time	Channel A
(us)	(mV)

0.00000000	-8.98464900
0.04000000	1.79448800
0.08000000	17.96930000
0.12000000	32.34352000
0.16000000	48.51222000
0.20000000	64.68703000
0.24000000	80.86184000
0.28000000	97.03055000
0.32000000	111.41090000
0.36000000	125.78510000
0.40000000	136.56420000
0.44000000	143.75440000
0.48000000	143.75440000
0.52000000	141.95990000
0.56000000	132.97520000
0.60000000	122.19000000
0.64000000	111.41090000
0.68000000	104.22070000
0.72000000	97.03055000
0.76000000	88.04590000
0.80000000	79.06125000
0.83999999	68.28211000
0.87999999	59.29746000
0.91999999	48.51222000
0.95999999	39.52757000
0.99999999	30.54292000
1.03999999	21.55827000
1.07999999	12.57363000
1.11999999	3.58897700
1.15999999	-7.18405700
1.19999999	-16.16870000
1.23999999	-26.95395000
1.27999999	-35.93859000
1.31999999	-43.12265000
1.35999999	-52.10730000
1.39999999	-59.29746000
1.43999999	-66.48762000
1.47999999	-73.67168000
1.51999999	-80.86184000
1.55999999	-88.04590000
1.59999999	-93.44157000
1.63999999	-98.83114000
1.67999999	-100.62560000
1.71999999	-102.42620000
1.75999999	-97.03055000
1.79999999	-91.64098000
1.83999999	-86.25141000
1.87999999	-82.65633000
1.91999999	-77.26676000
1.95999999	-73.67168000
1.99999999	-71.87719000
2.03999999	-71.87719000
2.07999999	-71.87719000
2.11999999	-71.87719000
2.15999999	-71.87719000
2.19999999	-70.07660000
2.23999999	-68.28211000
2.27999999	-64.68703000
2.31999999	-61.09195000
2.35999999	-52.10730000
2.39999999	-44.92325000
2.43999999	-35.93859000
2.47999998	-23.35887000
2.51999998	-10.77914000
2.55999998	0.00000000
2.59999998	14.37422000
2.63999998	32.34352000
2.67999998	48.51222000
2.71999998	64.68703000
2.75999998	77.26676000
2.79999998	86.25141000
2.83999998	79.06125000
2.87999998	93.44157000
2.91999998	127.57960000
2.95999998	150.94450000
2.99999998	156.33410000
3.03999998	152.73900000
3.07999998	170.70830000
3.11999998	176.09790000
3.15999998	163.51820000
3.19999998	134.76970000
3.23999998	109.61030000
3.27999998	95.23605000
3.31999998	86.25141000
3.35999998	71.87719000
3.39999998	46.71774000
3.43999998	35.93859000
3.47999998	39.52757000
3.51999998	39.52757000
3.55999998	28.74844000
3.59999998	12.57363000
3.63999998	1.79448800
3.67999998	-5.38956800
3.71999998	-14.37422000
3.75999998	-28.74844000
3.79999998	-37.73308000
3.83999998	-50.31281000
3.87999998	-52.10730000
3.91999998	-57.50298000
3.95999998	-61.09195000
3.99999998	-66.48762000
4.03999998	-66.48762000
4.07999998	-68.28211000
4.11999997	-80.86184000
4.15999997	-73.67168000
4.19999997	-71.87719000
4.23999997	-89.84650000
4.27999997	-88.04590000
4.31999997	-93.44157000
4.35999997	-82.65633000
4.39999997	-89.84650000
4.43999997	-89.84650000
4.47999997	-86.25141000
4.51999997	-79.06125000
4.55999997	-79.06125000
4.59999997	-79.06125000
4.63999997	-73.67168000
4.67999997	-70.07660000
4.71999997	-70.07660000
4.75999997	-66.48762000
4.79999997	-64.68703000
4.83999997	-59.29746000
4.87999997	-52.10730000
4.91999997	-41.32816000
4.95999997	-26.95395000
4.99999997	-16.16870000
5.03999997	-1.79448800
5.07999997	12.57363000
5.11999997	26.95395000
5.15999997	39.52757000
5.19999997	50.31281000
5.23999997	62.89254000
5.27999997	75.47227000
5.31999997	86.25141000
5.35999997	97.03055000
5.39999997	107.81580000
5.43999997	120.39550000
5.47999997	131.17470000
5.51999997	136.56420000
5.55999997	136.56420000
5.59999997	134.76970000
5.63999997	129.38020000
5.67999997	120.39550000
5.71999997	113.20540000
5.75999996	107.81580000
5.79999996	100.62560000
5.83999996	93.44157000
5.87999996	86.25141000
5.91999996	77.26676000
5.95999996	66.48762000
5.99999996	57.50298000
6.03999996	48.51222000
6.07999996	39.52757000
6.11999996	28.74844000
6.15999996	19.76379000
6.19999996	8.98464900
6.23999996	-3.58897700
6.27999996	-14.37422000
6.31999996	-25.15336000
6.35999996	-35.93859000
6.39999996	-44.92325000
6.43999996	-53.90789000
6.47999996	-61.09195000
6.51999996	-68.28211000
6.55999996	-75.47227000
6.59999996	-80.86184000
6.63999996	-86.25141000
6.67999996	-93.44157000
6.71999996	-97.03055000
6.75999996	-100.62560000
6.79999996	-100.62560000
6.83999996	-104.22070000
6.87999996	-91.64098000
6.91999996	-86.25141000
6.95999996	-75.47227000
6.99999996	-73.67168000
7.03999996	-70.07660000
7.07999996	-70.07660000
7.11999996	-71.87719000
7.15999996	-70.07660000
7.19999996	-71.87719000
7.23999996	-70.07660000
7.27999996	-68.28211000
7.31999996	-66.48762000
7.35999996	-62.89254000
7.39999996	-57.50298000
7.43999995	-52.10730000
7.47999995	-43.12265000
7.51999995	-28.74844000
7.55999995	-19.76379000
7.59999995	-5.38956800
7.63999995	7.18405700
7.67999995	25.15336000
7.71999995	37.73308000
7.75999995	53.90789000
7.79999995	70.07660000
7.83999995	82.65633000
7.87999995	97.03055000
7.91999995	107.81580000
7.95999995	120.39550000
7.99999995	129.38020000
8.03999995	136.56420000
8.07999995	141.95990000
8.11999995	140.15930000
8.15999995	134.76970000
8.19999995	125.78510000
8.23999995	116.80040000
8.27999995	109.61030000
8.31999995	100.62560000
8.35999995	93.44157000
8.39999995	84.45692000
8.43999995	77.26676000
8.47999995	68.28211000
8.51999995	59.29746000
8.55999995	50.31281000
8.59999995	43.12265000
8.63999995	32.34352000
8.67999995	25.15336000
8.71999995	14.37422000
8.75999995	5.38956800
8.79999995	-5.38956800
8.83999995	-16.16870000
8.87999995	-26.95395000
8.91999995	-37.73308000
8.95999995	-46.71774000
8.99999995	-59.29746000
9.03999995	-64.68703000
9.07999994	-70.07660000
9.11999994	-77.26676000
9.15999994	-86.25141000
9.19999994	-93.44157000
9.23999994	-98.83114000
9.27999994	-102.42620000
9.31999994	-104.22070000
9.35999994	-107.81580000
9.39999994	-109.61030000
9.43999994	-107.81580000
9.47999994	-106.01520000
9.51999994	-104.22070000
9.55999994	-100.62560000
9.59999994	-95.23605000
9.63999994	-91.64098000
9.67999994	-86.25141000
9.71999994	-82.65633000
9.75999994	-77.26676000
9.79999994	-71.87719000
9.83999994	-66.48762000
9.87999994	-59.29746000
9.91999994	-52.10730000
9.95999994	-44.92325000
9.99999994	-35.93859000
10.03999994	-28.74844000
10.07999994	-19.76379000
10.11999994	-8.98464900
10.15999994	1.79448800
10.19999994	12.57363000
10.23999994	25.15336000
10.27999994	35.93859000
10.31999994	44.92325000
10.35999994	55.70238000
10.39999994	64.68703000
10.43999994	77.26676000
10.47999994	88.04590000
10.51999994	98.83114000
10.55999994	107.81580000
10.59999994	118.59490000
10.63999994	125.78510000
10.67999994	129.38020000
10.71999993	129.38020000
10.75999993	129.38020000
10.79999993	123.99060000
10.83999993	118.59490000
10.87999993	109.61030000
10.91999993	100.62560000
10.95999993	88.04590000
10.99999993	79.06125000
11.03999993	68.28211000
11.07999993	57.50298000
11.11999993	46.71774000
11.15999993	35.93859000
11.19999993	26.95395000
11.23999993	17.96930000
11.27999993	8.98464900
11.31999993	0.00000000
11.35999993	-7.18405700
11.39999993	-16.16870000
11.43999993	-25.15336000
11.47999993	-35.93859000
11.51999993	-44.92325000
11.55999993	-53.90789000
11.59999993	-62.89254000
11.63999993	-71.87719000
11.67999993	-80.86184000
11.71999993	-88.04590000
11.75999993	-93.44157000
11.79999993	-100.62560000
11.83999993	-104.22070000
11.87999993	-107.81580000
11.91999993	-109.61030000
11.95999993	-102.42620000
11.99999993	-97.03055000
12.03999993	-88.04590000
12.07999993	-86.25141000
12.11999993	-84.45692000
12.15999993	-84.45692000
12.19999993	-80.86184000
12.23999993	-80.86184000
12.27999993	-75.47227000
12.31999993	-71.87719000
12.35999992	-68.28211000
12.39999992	-68.28211000
12.43999992	-66.48762000
12.47999992	-61.09195000
12.51999992	-62.89254000
12.55999992	-57.50298000
12.59999992	-50.31281000
12.63999992	-37.73308000
12.67999992	-28.74844000
12.71999992	-16.16870000
12.75999992	-1.79448800
12.79999992	14.37422000
12.83999992	28.74844000
12.87999992	46.71774000
12.91999992	64.68703000
12.95999992	80.86184000
12.99999992	97.03055000
13.03999992	111.41090000
13.07999992	123.99060000
13.11999992	136.56420000
13.15999992	143.75440000
13.19999992	147.34950000
13.23999992	143.75440000
13.27999992	136.56420000
13.31999992	125.78510000
13.35999992	116.80040000
13.39999992	107.81580000
13.43999992	100.62560000
13.47999992	91.64098000
13.51999992	84.45692000
13.55999992	75.47227000
13.59999992	64.68703000
13.63999992	55.70238000
13.67999992	46.71774000
13.71999992	37.73308000
13.75999992	28.74844000
13.79999992	21.55827000
13.83999992	12.57363000
13.87999992	3.58897700
13.91999992	-5.38956800
13.95999992	-28.74844000
13.99999991	-30.54292000
14.03999991	-30.54292000
14.07999991	-41.32816000
14.11999991	-55.70238000
14.15999991	-64.68703000
14.19999991	-71.87719000
14.23999991	-73.67168000
14.27999991	-86.25141000
14.31999991	-91.64098000
14.35999991	-97.03055000
14.39999991	-100.62560000
14.43999991	-107.81580000
14.47999991	-107.81580000
14.51999991	-111.41090000
14.55999991	-98.83114000
14.59999991	-95.23605000
14.63999991	-80.86184000
14.67999991	-80.86184000
14.71999991	-75.47227000
14.75999991	-73.67168000
14.79999991	-71.87719000
14.83999991	-71.87719000
14.87999991	-70.07660000
14.91999991	-70.07660000
14.95999991	-66.48762000
14.99999991	-64.68703000
15.03999991	-61.09195000
15.07999991	-57.50298000
15.11999991	-50.31281000
15.15999991	-46.71774000
15.19999991	-35.93859000
15.23999991	-23.35887000
15.27999991	-8.98464900
15.31999991	5.38956800
15.35999991	21.55827000
15.39999991	39.52757000
15.43999991	55.70238000
15.47999991	70.07660000
15.51999991	84.45692000
15.55999991	100.62560000
15.59999991	113.20540000
15.63999990	122.19000000
15.67999990	131.17470000
15.71999990	138.36480000
15.75999990	141.95990000
15.79999990	140.15930000
15.83999990	132.97520000
15.87999990	125.78510000
15.91999990	115.00600000
15.95999990	107.81580000
15.99999990	98.83114000
16.03999990	91.64098000
16.07999990	82.65633000
16.11999990	71.87719000
16.15999990	64.68703000
16.19999990	53.90789000
16.23999990	43.12265000
16.27999990	35.93859000
16.31999990	26.95395000
16.35999990	17.96930000
16.39999990	8.98464900
16.43999990	0.00000000
16.47999990	-8.98464900
16.51999990	-19.76379000
16.55999990	-28.74844000
16.59999990	-37.73308000
16.63999990	-46.71774000
16.67999990	-55.70238000
16.71999990	-64.68703000
16.75999990	-71.87719000
16.79999990	-79.06125000
16.83999990	-86.25141000
16.87999990	-93.44157000
16.91999990	-98.83114000
16.95999990	-104.22070000
16.99999990	-107.81580000
17.03999990	-107.81580000
17.07999990	-102.42620000
17.11999990	-93.44157000
17.15999990	-82.65633000
17.19999990	-73.67168000
17.23999990	-71.87719000
17.27999989	-68.28211000
17.31999989	-68.28211000
17.35999989	-66.48762000
17.39999989	-66.48762000
17.43999989	-66.48762000
17.47999989	-66.48762000
17.51999989	-64.68703000
17.55999989	-61.09195000
17.59999989	-61.09195000
17.63999989	-57.50298000
17.67999989	-53.90789000
17.71999989	-43.12265000
17.75999989	-34.13800000
17.79999989	-21.55827000
17.83999989	-7.18405700
17.87999989	10.77914000
17.91999989	25.15336000
17.95999989	44.92325000
17.99999989	61.09195000
18.03999989	79.06125000
18.07999989	93.44157000
18.11999989	109.61030000
18.15999989	122.19000000
18.19999989	136.56420000
18.23999989	143.75440000
18.27999989	150.94450000
18.31999989	147.34950000
18.35999989	138.36480000
18.39999989	127.57960000
18.43999989	120.39550000
18.47999989	109.61030000
18.51999989	102.42620000
18.55999989	93.44157000
18.59999989	88.04590000
18.63999989	79.06125000
18.67999989	71.87719000
18.71999989	62.89254000
18.75999989	53.90789000
18.79999989	44.92325000
18.83999989	30.54292000
18.87999989	25.15336000
18.91999989	17.96930000
18.95999988	7.18405700
18.99999988	-7.18405700
19.03999988	-17.96930000
19.07999988	-28.74844000
19.11999988	-37.73308000
19.15999988	-44.92325000
19.19999988	-53.90789000
19.23999988	-61.09195000
19.27999988	-66.48762000
19.31999988	-73.67168000
19.35999988	-80.86184000
19.39999988	-86.25141000
19.43999988	-91.64098000
19.47999988	-93.44157000
19.51999988	-95.23605000
19.55999988	-88.04590000
19.59999988	-84.45692000
19.63999988	-77.26676000
19.67999988	-75.47227000
19.71999988	-71.87719000
19.75999988	-70.07660000
19.79999988	-70.07660000
19.83999988	-71.87719000
19.87999988	-71.87719000
19.91999988	-71.87719000
19.95999988	-71.87719000
19.99999988	-70.07660000
20.03999988	-70.07660000
20.07999988	-64.68703000
20.11999988	-61.09195000
20.15999988	-55.70238000
20.19999988	-46.71774000
20.23999988	-35.93859000
20.27999988	-25.15336000
20.31999988	-14.37422000
20.35999988	-1.79448800
20.39999988	10.77914000
20.43999988	26.95395000
20.47999988	44.92325000
20.51999988	59.29746000
20.55999988	75.47227000
20.59999987	89.84650000
20.63999987	106.01520000
20.67999987	120.39550000
20.71999987	131.17470000
20.75999987	143.75440000
20.79999987	147.34950000
20.83999987	149.14400000
20.87999987	141.95990000
20.91999987	131.17470000
20.95999987	120.39550000
20.99999987	113.20540000
21.03999987	106.01520000
21.07999987	98.83114000
21.11999987	93.44157000
21.15999987	86.25141000
21.19999987	79.06125000
21.23999987	70.07660000
21.27999987	61.09195000
21.31999987	52.10730000
21.35999987	43.12265000
21.39999987	34.13800000
21.43999987	23.35887000
21.47999987	12.57363000
21.51999987	0.00000000
21.55999987	-12.57363000
21.59999987	-23.35887000
21.63999987	-32.34352000
21.67999987	-41.32816000
21.71999987	-50.31281000
21.75999987	-57.50298000
21.79999987	-64.68703000
21.83999987	-71.87719000
21.87999987	-79.06125000
21.91999987	-84.45692000
21.95999987	-88.04590000
21.99999987	-88.04590000
22.03999987	-95.23605000
22.07999987	-82.65633000
22.11999987	-79.06125000
22.15999987	-68.28211000
22.19999987	-70.07660000
22.23999986	-64.68703000
22.27999986	-64.68703000
22.31999986	-62.89254000
22.35999986	-64.68703000
22.39999986	-64.68703000
22.43999986	-64.68703000
22.47999986	-66.48762000
22.51999986	-66.48762000
22.55999986	-64.68703000
22.59999986	-61.09195000
22.63999986	-57.50298000
22.67999986	-52.10730000
22.71999986	-43.12265000
22.75999986	-35.93859000
22.79999986	-25.15336000
22.83999986	-16.16870000
22.87999986	-3.58897700
22.91999986	8.98464900
22.95999986	25.15336000
22.99999986	39.52757000
23.03999986	57.50298000
23.07999986	71.87719000
23.11999986	89.84650000
23.15999986	104.22070000
23.19999986	118.59490000
23.23999986	132.97520000
23.27999986	143.75440000
23.31999986	150.94450000
23.35999986	147.34950000
23.39999986	141.95990000
23.43999986	129.38020000
23.47999986	118.59490000
23.51999986	111.41090000
23.55999986	104.22070000
23.59999986	98.83114000
23.63999986	93.44157000
23.67999986	86.25141000
23.71999986	80.86184000
23.75999986	75.47227000
23.79999986	55.70238000
23.83999986	55.70238000
23.87999985	53.90789000
23.91999985	41.32816000
23.95999985	25.15336000
23.99999985	10.77914000
24.03999985	0.00000000
24.07999985	-8.98464900
24.11999985	-25.15336000
24.15999985	-34.13800000
24.19999985	-43.12265000
24.23999985	-50.31281000
24.27999985	-61.09195000
24.31999985	-66.48762000
24.35999985	-71.87719000
24.39999985	-79.06125000
24.43999985	-82.65633000
24.47999985	-86.25141000
24.51999985	-88.04590000
24.55999985	-93.44157000
24.59999985	-95.23605000
24.63999985	-97.03055000
24.67999985	-97.03055000
24.71999985	-97.03055000
24.75999985	-93.44157000
24.79999985	-89.84650000
24.83999985	-88.04590000
24.87999985	-86.25141000
24.91999985	-82.65633000
24.95999985	-79.06125000
24.99999985	-73.67168000
25.03999985	-68.28211000
25.07999985	-62.89254000
25.11999985	-57.50298000
25.15999985	-52.10730000
25.19999985	-44.92325000
25.23999985	-37.73308000
25.27999985	-28.74844000
25.31999985	-21.55827000
25.35999985	-10.77914000
25.39999985	0.00000000
25.43999985	12.57363000
25.47999985	21.55827000
25.51999984	30.54292000
25.55999984	43.12265000
25.59999984	55.70238000
25.63999984	64.68703000
25.67999984	73.67168000
25.71999984	86.25141000
25.75999984	93.44157000
25.79999984	106.01520000
25.83999984	115.00600000
25.87999984	122.19000000
25.91999984	127.57960000
25.95999984	131.17470000
25.99999984	131.17470000
26.03999984	129.38020000
26.07999984	122.19000000
26.11999984	113.20540000
26.15999984	106.01520000
26.19999984	95.23605000
26.23999984	84.45692000
26.27999984	73.67168000
26.31999984	62.89254000
26.35999984	50.31281000
26.39999984	37.73308000
26.43999984	26.95395000
26.47999984	17.96930000
26.51999984	7.18405700
26.55999984	0.00000000
26.59999984	-8.98464900
26.63999984	-16.16870000
26.67999984	-25.15336000
26.71999984	-34.13800000
26.75999984	-43.12265000
26.79999984	-50.31281000
26.83999984	-59.29746000
26.87999984	-68.28211000
26.91999984	-75.47227000
26.95999984	-82.65633000
26.99999984	-89.84650000
27.03999984	-93.44157000
27.07999984	-100.62560000
27.11999984	-102.42620000
27.15999983	-106.01520000
27.19999983	-107.81580000
27.23999983	-107.81580000
27.27999983	-107.81580000
27.31999983	-107.81580000
27.35999983	-104.22070000
27.39999983	-100.62560000
27.43999983	-93.44157000
27.47999983	-82.65633000
27.51999983	-70.07660000
27.55999983	-64.68703000
27.59999983	-61.09195000
27.63999983	-55.70238000
27.67999983	-50.31281000
27.71999983	-50.31281000
27.75999983	-44.92325000
27.79999983	-43.12265000
27.83999983	-37.73308000
27.87999983	-35.93859000
27.91999983	-30.54292000
27.95999983	-23.35887000
27.99999983	-14.37422000
28.03999983	0.00000000
28.07999983	14.37422000
28.11999983	32.34352000
28.15999983	50.31281000
28.19999983	64.68703000
28.23999983	82.65633000
28.27999983	98.83114000
28.31999983	115.00600000
28.35999983	129.38020000
28.39999983	140.15930000
28.43999983	145.54890000
28.47999983	147.34950000
28.51999983	140.15930000
28.55999983	129.38020000
28.59999983	118.59490000
28.63999983	107.81580000
28.67999983	93.44157000
28.71999983	89.84650000
28.75999983	84.45692000
28.79999982	75.47227000
28.83999982	64.68703000
28.87999982	53.90789000
28.91999982	46.71774000
28.95999982	37.73308000
28.99999982	28.74844000
29.03999982	21.55827000
29.07999982	12.57363000
29.11999982	3.58897700
29.15999982	-7.18405700
29.19999982	-17.96930000
29.23999982	-28.74844000
29.27999982	-37.73308000
29.31999982	-44.92325000
29.35999982	-53.90789000
29.39999982	-62.89254000
29.43999982	-70.07660000
29.47999982	-79.06125000
29.51999982	-84.45692000
29.55999982	-89.84650000
29.59999982	-93.44157000
29.63999982	-97.03055000
29.67999982	-100.62560000
29.71999982	-93.44157000
29.75999982	-91.64098000
29.79999982	-79.06125000
29.83999982	-80.86184000
29.87999982	-77.26676000
29.91999982	-77.26676000
29.95999982	-73.67168000
29.99999982	-75.47227000
30.03999982	-77.26676000
30.07999982	-75.47227000
30.11999982	-73.67168000
30.15999982	-71.87719000
30.19999982	-70.07660000
30.23999982	-68.28211000
30.27999982	-64.68703000
30.31999982	-59.29746000
30.35999982	-52.10730000
30.39999982	-43.12265000
30.43999982	-32.34352000
30.47999981	-21.55827000
30.51999981	-7.18405700
30.55999981	5.38956800
30.59999981	19.76379000
30.63999981	35.93859000
30.67999981	52.10730000
30.71999981	68.28211000
30.75999981	82.65633000
30.79999981	98.83114000
30.83999981	111.41090000
30.87999981	125.78510000
30.91999981	136.56420000
30.95999981	145.54890000
30.99999981	147.34950000
31.03999981	145.54890000
31.07999981	136.56420000
31.11999981	123.99060000
31.15999981	115.00600000
31.19999981	106.01520000
31.23999981	98.83114000
31.27999981	91.64098000
31.31999981	82.65633000
31.35999981	73.67168000
31.39999981	62.89254000
31.43999981	53.90789000
