Time	Channel A
(us)	(mV)

0.00000000	-52.10730000
0.04000000	-50.31281000
0.08000000	-43.12265000
0.12000000	-35.93859000
0.16000000	-28.74844000
0.20000000	-19.76379000
0.24000000	-12.57363000
0.28000000	-5.38956800
0.32000000	1.79448800
0.36000000	10.77914000
0.40000000	19.76379000
0.44000000	28.74844000
0.48000000	39.52757000
0.52000000	50.31281000
0.56000000	62.89254000
0.60000000	77.26676000
0.64000000	89.84650000
0.68000000	106.01520000
0.72000000	116.80040000
0.76000000	127.57960000
0.80000000	131.17470000
0.83999999	129.38020000
0.87999999	123.99060000
0.91999999	115.00600000
0.95999999	104.22070000
0.99999999	93.44157000
1.03999999	82.65633000
1.07999999	71.87719000
1.11999999	59.29746000
1.15999999	48.51222000
1.19999999	35.93859000
1.23999999	28.74844000
1.27999999	17.96930000
1.31999999	10.77914000
1.35999999	0.00000000
1.39999999	-10.77914000
1.43999999	-21.55827000
1.47999999	-35.93859000
1.51999999	-48.51222000
1.55999999	-62.89254000
1.59999999	-73.67168000
1.63999999	-84.45692000
1.67999999	-89.84650000
1.71999999	-86.25141000
1.75999999	-80.86184000
1.79999999	-70.07660000
1.83999999	-62.89254000
1.87999999	-57.50298000
1.91999999	-48.51222000
1.95999999	-46.71774000
1.99999999	-44.92325000
2.03999999	-44.92325000
2.07999999	-44.92325000
2.11999999	-46.71774000
2.15999999	-52.10730000
2.19999999	-52.10730000
2.23999999	-53.90789000
2.27999999	-53.90789000
2.31999999	-57.50298000
2.35999999	-52.10730000
2.39999999	-44.92325000
2.43999999	-35.93859000
2.47999998	-28.74844000
2.51999998	-19.76379000
2.55999998	-14.37422000
2.59999998	-7.18405700
2.63999998	-1.79448800
2.67999998	7.18405700
2.71999998	14.37422000
2.75999998	26.95395000
2.79999998	35.93859000
2.83999998	48.51222000
2.87999998	62.89254000
2.91999998	77.26676000
2.95999998	91.64098000
2.99999998	107.81580000
3.03999998	123.99060000
3.07999998	132.97520000
3.11999998	136.56420000
3.15999998	131.17470000
3.19999998	123.99060000
3.23999998	115.00600000
3.27999998	106.01520000
3.31999998	93.44157000
3.35999998	84.45692000
3.39999998	71.87719000
3.43999998	61.09195000
3.47999998	48.51222000
3.51999998	37.73308000
3.55999998	28.74844000
3.59999998	19.76379000
3.63999998	12.57363000
3.67999998	1.79448800
3.71999998	-8.98464900
3.75999998	-21.55827000
3.79999998	-34.13800000
3.83999998	-50.31281000
3.87999998	-61.09195000
3.91999998	-70.07660000
3.95999998	-75.47227000
3.99999998	-80.86184000
4.03999998	-84.45692000
4.07999998	-77.26676000
4.11999997	-71.87719000
4.15999997	-64.68703000
4.19999997	-61.09195000
4.23999997	-57.50298000
4.27999997	-53.90789000
4.31999997	-50.31281000
4.35999997	-52.10730000
4.39999997	-52.10730000
4.43999997	-53.90789000
4.47999997	-53.90789000
4.51999997	-53.90789000
4.55999997	-53.90789000
4.59999997	-52.10730000
4.63999997	-50.31281000
4.67999997	-44.92325000
4.71999997	-39.52757000
4.75999997	-32.34352000
4.79999997	-25.15336000
4.83999997	-19.76379000
4.87999997	-10.77914000
4.91999997	-5.38956800
4.95999997	1.79448800
4.99999997	10.77914000
5.03999997	21.55827000
5.07999997	30.54292000
5.11999997	41.32816000
5.15999997	52.10730000
5.19999997	62.89254000
5.23999997	75.47227000
5.27999997	88.04590000
5.31999997	100.62560000
5.35999997	113.20540000
5.39999997	120.39550000
5.43999997	127.57960000
5.47999997	125.78510000
5.51999997	122.19000000
5.55999997	115.00600000
5.59999997	106.01520000
5.63999997	95.23605000
5.67999997	86.25141000
5.71999997	73.67168000
5.75999996	62.89254000
5.79999996	52.10730000
5.83999996	41.32816000
5.87999996	32.34352000
5.91999996	21.55827000
5.95999996	12.57363000
5.99999996	3.58897700
6.03999996	-8.98464900
6.07999996	-19.76379000
6.11999996	-32.34352000
6.15999996	-44.92325000
6.19999996	-59.29746000
6.23999996	-71.87719000
6.27999996	-82.65633000
6.31999996	-82.65633000
6.35999996	-82.65633000
6.39999996	-77.26676000
6.43999996	-73.67168000
6.47999996	-68.28211000
6.51999996	-64.68703000
6.55999996	-59.29746000
6.59999996	-57.50298000
6.63999996	-55.70238000
6.67999996	-53.90789000
6.71999996	-53.90789000
6.75999996	-55.70238000
6.79999996	-57.50298000
6.83999996	-57.50298000
6.87999996	-57.50298000
6.91999996	-57.50298000
6.95999996	-53.90789000
6.99999996	-48.51222000
7.03999996	-43.12265000
7.07999996	-35.93859000
7.11999996	-28.74844000
7.15999996	-21.55827000
7.19999996	-14.37422000
7.23999996	-3.58897700
7.27999996	-1.79448800
7.31999996	-3.58897700
7.35999996	16.16870000
7.39999996	34.13800000
7.43999995	39.52757000
7.47999995	44.92325000
7.51999995	53.90789000
7.55999995	70.07660000
7.59999995	84.45692000
7.63999995	93.44157000
7.67999995	106.01520000
7.71999995	120.39550000
7.75999995	123.99060000
7.79999995	123.99060000
7.83999995	122.19000000
7.87999995	115.00600000
7.91999995	106.01520000
7.95999995	97.03055000
7.99999995	89.84650000
8.03999995	79.06125000
8.07999995	68.28211000
8.11999995	57.50298000
8.15999995	48.51222000
8.19999995	35.93859000
8.23999995	26.95395000
8.27999995	16.16870000
8.31999995	7.18405700
8.35999995	-3.58897700
8.39999995	-16.16870000
8.43999995	-28.74844000
8.47999995	-39.52757000
8.51999995	-53.90789000
8.55999995	-68.28211000
8.59999995	-79.06125000
8.63999995	-88.04590000
8.67999995	-89.84650000
8.71999995	-95.23605000
8.75999995	-80.86184000
8.79999995	-73.67168000
8.83999995	-57.50298000
8.87999995	-61.09195000
8.91999995	-52.10730000
8.95999995	-50.31281000
8.99999995	-50.31281000
9.03999995	-52.10730000
9.07999994	-52.10730000
9.11999994	-52.10730000
9.15999994	-53.90789000
9.19999994	-57.50298000
9.23999994	-57.50298000
9.27999994	-55.70238000
9.31999994	-53.90789000
9.35999994	-50.31281000
9.39999994	-43.12265000
9.43999994	-34.13800000
9.47999994	-26.95395000
9.51999994	-19.76379000
9.55999994	-12.57363000
9.59999994	-7.18405700
9.63999994	0.00000000
9.67999994	8.98464900
9.71999994	19.76379000
9.75999994	28.74844000
9.79999994	39.52757000
9.83999994	50.31281000
9.87999994	62.89254000
9.91999994	77.26676000
9.95999994	89.84650000
9.99999994	104.22070000
10.03999994	115.00600000
10.07999994	122.19000000
10.11999994	129.38020000
10.15999994	125.78510000
10.19999994	118.59490000
10.23999994	113.20540000
10.27999994	104.22070000
10.31999994	91.64098000
10.35999994	82.65633000
10.39999994	70.07660000
10.43999994	59.29746000
10.47999994	48.51222000
10.51999994	35.93859000
10.55999994	28.74844000
10.59999994	17.96930000
10.63999994	8.98464900
10.67999994	0.00000000
10.71999993	-10.77914000
10.75999993	-23.35887000
10.79999993	-37.73308000
10.83999993	-50.31281000
10.87999993	-64.68703000
10.91999993	-77.26676000
10.95999993	-86.25141000
10.99999993	-93.44157000
11.03999993	-93.44157000
11.07999993	-91.64098000
11.11999993	-86.25141000
11.15999993	-82.65633000
11.19999993	-77.26676000
11.23999993	-71.87719000
11.27999993	-66.48762000
11.31999993	-62.89254000
11.35999993	-61.09195000
11.39999993	-55.70238000
11.43999993	-57.50298000
11.47999993	-44.92325000
11.51999993	-46.71774000
11.55999993	-44.92325000
11.59999993	-44.92325000
11.63999993	-43.12265000
11.67999993	-43.12265000
11.71999993	-39.52757000
11.75999993	-35.93859000
11.79999993	-30.54292000
11.83999993	-23.35887000
11.87999993	-19.76379000
11.91999993	-14.37422000
11.95999993	-8.98464900
11.99999993	-3.58897700
12.03999993	5.38956800
12.07999993	14.37422000
12.11999993	26.95395000
12.15999993	35.93859000
12.19999993	50.31281000
12.23999993	64.68703000
12.27999993	84.45692000
12.31999993	100.62560000
12.35999992	115.00600000
12.39999992	120.39550000
12.43999992	127.57960000
12.47999992	125.78510000
12.51999992	122.19000000
12.55999992	111.41090000
12.59999992	102.42620000
12.63999992	91.64098000
12.67999992	80.86184000
12.71999992	71.87719000
12.75999992	59.29746000
12.79999992	48.51222000
12.83999992	37.73308000
12.87999992	28.74844000
12.91999992	19.76379000
12.95999992	10.77914000
12.99999992	3.58897700
13.03999992	-7.18405700
13.07999992	-17.96930000
13.11999992	-30.54292000
13.15999992	-44.92325000
13.19999992	-59.29746000
13.23999992	-71.87719000
13.27999992	-79.06125000
13.31999992	-82.65633000
13.35999992	-82.65633000
13.39999992	-80.86184000
13.43999992	-75.47227000
13.47999992	-70.07660000
13.51999992	-64.68703000
13.55999992	-59.29746000
13.59999992	-53.90789000
13.63999992	-53.90789000
13.67999992	-57.50298000
13.71999992	-57.50298000
13.75999992	-55.70238000
13.79999992	-55.70238000
13.83999992	-57.50298000
13.87999992	-59.29746000
13.91999992	-57.50298000
13.95999992	-55.70238000
13.99999991	-50.31281000
14.03999991	-44.92325000
14.07999991	-39.52757000
14.11999991	-32.34352000
14.15999991	-25.15336000
14.19999991	-17.96930000
14.23999991	-12.57363000
14.27999991	-5.38956800
14.31999991	1.79448800
14.35999991	8.98464900
14.39999991	19.76379000
14.43999991	28.74844000
14.47999991	37.73308000
14.51999991	50.31281000
14.55999991	61.09195000
14.59999991	71.87719000
14.63999991	84.45692000
14.67999991	98.83114000
14.71999991	107.81580000
14.75999991	118.59490000
14.79999991	120.39550000
14.83999991	120.39550000
14.87999991	116.80040000
14.91999991	109.61030000
14.95999991	100.62560000
14.99999991	91.64098000
15.03999991	79.06125000
15.07999991	70.07660000
15.11999991	59.29746000
15.15999991	48.51222000
15.19999991	35.93859000
15.23999991	26.95395000
15.27999991	16.16870000
15.31999991	5.38956800
15.35999991	-3.58897700
15.39999991	-14.37422000
15.43999991	-26.95395000
15.47999991	-39.52757000
15.51999991	-55.70238000
15.55999991	-68.28211000
15.59999991	-79.06125000
15.63999990	-89.84650000
15.67999990	-86.25141000
15.71999990	-86.25141000
15.75999990	-79.06125000
15.79999990	-75.47227000
15.83999990	-68.28211000
15.87999990	-62.89254000
15.91999990	-55.70238000
15.95999990	-53.90789000
15.99999990	-50.31281000
16.03999990	-48.51222000
16.07999990	-50.31281000
16.11999990	-52.10730000
16.15999990	-53.90789000
16.19999990	-55.70238000
16.23999990	-53.90789000
16.27999990	-53.90789000
16.31999990	-50.31281000
16.35999990	-44.92325000
16.39999990	-39.52757000
16.43999990	-34.13800000
16.47999990	-28.74844000
16.51999990	-21.55827000
16.55999990	-14.37422000
16.59999990	-7.18405700
16.63999990	0.00000000
16.67999990	7.18405700
16.71999990	17.96930000
16.75999990	28.74844000
16.79999990	39.52757000
16.83999990	50.31281000
16.87999990	64.68703000
16.91999990	79.06125000
16.95999990	91.64098000
16.99999990	104.22070000
17.03999990	115.00600000
17.07999990	122.19000000
17.11999990	129.38020000
17.15999990	116.80040000
17.19999990	109.61030000
17.23999990	115.00600000
17.27999989	107.81580000
17.31999989	91.64098000
17.35999989	77.26676000
17.39999989	64.68703000
17.43999989	57.50298000
17.47999989	48.51222000
17.51999989	34.13800000
17.55999989	25.15336000
17.59999989	16.16870000
17.63999989	5.38956800
17.67999989	-3.58897700
17.71999989	-14.37422000
17.75999989	-26.95395000
17.79999989	-41.32816000
17.83999989	-53.90789000
17.87999989	-64.68703000
17.91999989	-75.47227000
17.95999989	-82.65633000
17.99999989	-84.45692000
18.03999989	-79.06125000
18.07999989	-75.47227000
18.11999989	-71.87719000
18.15999989	-66.48762000
18.19999989	-62.89254000
18.23999989	-59.29746000
18.27999989	-57.50298000
18.31999989	-53.90789000
18.35999989	-52.10730000
18.39999989	-50.31281000
18.43999989	-44.92325000
18.47999989	-30.54292000
18.51999989	-17.96930000
18.55999989	-28.74844000
18.59999989	-55.70238000
18.63999989	-53.90789000
18.67999989	-46.71774000
18.71999989	-62.89254000
18.75999989	-80.86184000
18.79999989	-73.67168000
18.83999989	-50.31281000
18.87999989	-23.35887000
18.91999989	-7.18405700
18.95999988	1.79448800
18.99999988	16.16870000
19.03999988	37.73308000
19.07999988	55.70238000
19.11999988	59.29746000
19.15999988	59.29746000
19.19999988	70.07660000
19.23999988	89.84650000
19.27999988	107.81580000
19.31999988	113.20540000
19.35999988	120.39550000
19.39999988	129.38020000
19.43999988	134.76970000
19.47999988	129.38020000
19.51999988	120.39550000
19.55999988	107.81580000
19.59999988	95.23605000
19.63999988	82.65633000
19.67999988	71.87719000
19.71999988	57.50298000
19.75999988	41.32816000
19.79999988	30.54292000
19.83999988	23.35887000
19.87999988	19.76379000
19.91999988	14.37422000
19.95999988	7.18405700
19.99999988	1.79448800
20.03999988	-3.58897700
20.07999988	-14.37422000
20.11999988	-28.74844000
20.15999988	-48.51222000
20.19999988	-64.68703000
20.23999988	-79.06125000
20.27999988	-89.84650000
20.31999988	-100.62560000
20.35999988	-97.03055000
20.39999988	-97.03055000
20.43999988	-75.47227000
20.47999988	-68.28211000
20.51999988	-55.70238000
20.55999988	-57.50298000
20.59999987	-55.70238000
20.63999987	-55.70238000
20.67999987	-57.50298000
20.71999987	-61.09195000
20.75999987	-62.89254000
20.79999987	-61.09195000
20.83999987	-59.29746000
20.87999987	-59.29746000
20.91999987	-53.90789000
20.95999987	-50.31281000
20.99999987	-44.92325000
21.03999987	-37.73308000
21.07999987	-28.74844000
21.11999987	-21.55827000
21.15999987	-16.16870000
21.19999987	-8.98464900
21.23999987	-1.79448800
21.27999987	3.58897700
21.31999987	10.77914000
21.35999987	17.96930000
21.39999987	28.74844000
21.43999987	37.73308000
21.47999987	48.51222000
21.51999987	59.29746000
21.55999987	73.67168000
21.59999987	89.84650000
21.63999987	102.42620000
21.67999987	113.20540000
21.71999987	122.19000000
21.75999987	122.19000000
21.79999987	120.39550000
21.83999987	115.00600000
21.87999987	107.81580000
21.91999987	100.62560000
21.95999987	91.64098000
21.99999987	82.65633000
22.03999987	70.07660000
22.07999987	55.70238000
22.11999987	48.51222000
22.15999987	34.13800000
22.19999987	28.74844000
22.23999986	17.96930000
22.27999986	7.18405700
22.31999986	-5.38956800
22.35999986	-16.16870000
22.39999986	-26.95395000
22.43999986	-39.52757000
22.47999986	-55.70238000
22.51999986	-68.28211000
22.55999986	-77.26676000
22.59999986	-86.25141000
22.63999986	-84.45692000
22.67999986	-82.65633000
22.71999986	-73.67168000
22.75999986	-70.07660000
22.79999986	-61.09195000
22.83999986	-57.50298000
22.87999986	-52.10730000
22.91999986	-50.31281000
22.95999986	-46.71774000
22.99999986	-46.71774000
23.03999986	-50.31281000
23.07999986	-52.10730000
23.11999986	-53.90789000
23.15999986	-57.50298000
23.19999986	-57.50298000
23.23999986	-57.50298000
23.27999986	-55.70238000
23.31999986	-48.51222000
23.35999986	-39.52757000
23.39999986	-32.34352000
23.43999986	-28.74844000
23.47999986	-25.15336000
23.51999986	-16.16870000
23.55999986	-8.98464900
23.59999986	0.00000000
23.63999986	7.18405700
23.67999986	16.16870000
23.71999986	28.74844000
23.75999986	41.32816000
23.79999986	53.90789000
23.83999986	66.48762000
23.87999985	80.86184000
23.91999985	95.23605000
23.95999985	111.41090000
23.99999985	123.99060000
24.03999985	129.38020000
24.07999985	131.17470000
24.11999985	129.38020000
24.15999985	122.19000000
24.19999985	111.41090000
24.23999985	100.62560000
24.27999985	89.84650000
24.31999985	80.86184000
24.35999985	70.07660000
24.39999985	59.29746000
24.43999985	46.71774000
24.47999985	37.73308000
24.51999985	28.74844000
24.55999985	19.76379000
24.59999985	8.98464900
24.63999985	0.00000000
24.67999985	-8.98464900
24.71999985	-21.55827000
24.75999985	-35.93859000
24.79999985	-50.31281000
24.83999985	-64.68703000
24.87999985	-79.06125000
24.91999985	-86.25141000
24.95999985	-93.44157000
24.99999985	-93.44157000
25.03999985	-88.04590000
25.07999985	-80.86184000
25.11999985	-73.67168000
25.15999985	-68.28211000
25.19999985	-62.89254000
25.23999985	-57.50298000
25.27999985	-57.50298000
25.31999985	-57.50298000
25.35999985	-57.50298000
25.39999985	-57.50298000
25.43999985	-57.50298000
25.47999985	-59.29746000
25.51999984	-59.29746000
25.55999984	-57.50298000
25.59999984	-55.70238000
25.63999984	-50.31281000
25.67999984	-44.92325000
25.71999984	-35.93859000
25.75999984	-28.74844000
25.79999984	-21.55827000
25.83999984	-14.37422000
25.87999984	-5.38956800
25.91999984	3.58897700
25.95999984	12.57363000
25.99999984	21.55827000
26.03999984	32.34352000
26.07999984	41.32816000
26.11999984	50.31281000
26.15999984	61.09195000
26.19999984	71.87719000
26.23999984	82.65633000
26.27999984	97.03055000
26.31999984	107.81580000
26.35999984	116.80040000
26.39999984	120.39550000
26.43999984	120.39550000
26.47999984	115.00600000
26.51999984	109.61030000
26.55999984	102.42620000
26.59999984	91.64098000
26.63999984	82.65633000
26.67999984	71.87719000
26.71999984	61.09195000
26.75999984	50.31281000
26.79999984	41.32816000
26.83999984	30.54292000
26.87999984	21.55827000
26.91999984	12.57363000
26.95999984	3.58897700
26.99999984	-3.58897700
27.03999984	-23.35887000
27.07999984	-43.12265000
27.11999984	-43.12265000
27.15999983	-50.31281000
27.19999983	-70.07660000
27.23999983	-86.25141000
27.27999983	-91.64098000
27.31999983	-88.04590000
27.35999983	-88.04590000
27.39999983	-79.06125000
27.43999983	-68.28211000
27.47999983	-57.50298000
27.51999983	-57.50298000
27.55999983	-53.90789000
27.59999983	-50.31281000
27.63999983	-50.31281000
27.67999983	-52.10730000
27.71999983	-52.10730000
27.75999983	-52.10730000
27.79999983	-55.70238000
27.83999983	-57.50298000
27.87999983	-57.50298000
27.91999983	-55.70238000
27.95999983	-53.90789000
27.99999983	-48.51222000
28.03999983	-41.32816000
28.07999983	-34.13800000
28.11999983	-26.95395000
28.15999983	-21.55827000
28.19999983	-14.37422000
28.23999983	-7.18405700
28.27999983	-1.79448800
28.31999983	8.98464900
28.35999983	14.37422000
28.39999983	26.95395000
28.43999983	41.32816000
28.47999983	52.10730000
28.51999983	64.68703000
28.55999983	82.65633000
28.59999983	100.62560000
28.63999983	116.80040000
28.67999983	127.57960000
28.71999983	132.97520000
28.75999983	134.76970000
28.79999982	129.38020000
28.83999982	120.39550000
28.87999982	107.81580000
28.91999982	98.83114000
28.95999982	88.04590000
28.99999982	79.06125000
29.03999982	64.68703000
29.07999982	53.90789000
29.11999982	43.12265000
29.15999982	34.13800000
29.19999982	25.15336000
29.23999982	16.16870000
29.27999982	7.18405700
29.31999982	-1.79448800
29.35999982	-12.57363000
29.39999982	-26.95395000
29.43999982	-39.52757000
29.47999982	-55.70238000
29.51999982	-68.28211000
29.55999982	-80.86184000
29.59999982	-84.45692000
29.63999982	-93.44157000
29.67999982	-71.87719000
29.71999982	-59.29746000
29.75999982	-37.73308000
29.79999982	-35.93859000
29.83999982	-34.13800000
29.87999982	-43.12265000
29.91999982	-55.70238000
29.95999982	-68.28211000
29.99999982	-84.45692000
30.03999982	-95.23605000
30.07999982	-98.83114000
30.11999982	-93.44157000
30.15999982	-79.06125000
30.19999982	-64.68703000
30.23999982	-55.70238000
30.27999982	-43.12265000
30.31999982	-28.74844000
30.35999982	-17.96930000
30.39999982	-14.37422000
30.43999982	-10.77914000
30.47999981	-7.18405700
30.51999981	0.00000000
30.55999981	7.18405700
30.59999981	14.37422000
30.63999981	21.55827000
30.67999981	30.54292000
30.71999981	41.32816000
30.75999981	50.31281000
30.79999981	59.29746000
30.83999981	70.07660000
30.87999981	79.06125000
30.91999981	91.64098000
30.95999981	100.62560000
30.99999981	107.81580000
31.03999981	113.20540000
31.07999981	115.00600000
31.11999981	113.20540000
31.15999981	111.41090000
31.19999981	106.01520000
31.23999981	100.62560000
31.27999981	93.44157000
31.31999981	88.04590000
31.35999981	77.26676000
31.39999981	64.68703000
31.43999981	52.10730000
31.47999981	39.52757000
31.51999981	26.95395000
31.55999981	16.16870000
