Time	Channel A
(us)	(mV)

0.00000000	-125.91940000
0.04000000	-125.91940000
0.08000000	-116.94690000
0.12000000	-116.94690000
0.16000000	-107.95920000
0.20000000	-98.97152000
0.24000000	-89.98383000
0.28000000	-76.50990000
0.32000000	-63.03598000
0.36000000	-49.56206000
0.40000000	-36.08813000
0.44000000	-22.59896000
0.48000000	-9.12503300
0.52000000	4.33362800
0.56000000	17.80755000
0.60000000	26.79525000
0.64000000	35.78295000
0.68000000	49.25687000
0.72000000	58.24457000
0.76000000	62.73079000
0.80000000	71.71850000
0.83999999	80.70620000
0.87999999	85.19241000
0.91999999	89.67863000
0.95999999	98.66634000
0.99999999	107.65400000
1.03999999	112.14030000
1.07999999	121.12800000
1.11999999	125.61420000
1.15999999	134.60190000
1.19999999	139.10340000
1.23999999	139.10340000
1.27999999	139.10340000
1.31999999	139.10340000
1.35999999	134.60190000
1.39999999	130.11560000
1.43999999	116.64170000
1.47999999	107.65400000
1.51999999	103.15250000
1.55999999	89.67863000
1.59999999	71.71850000
1.63999999	53.74309000
1.67999999	40.26917000
1.71999999	35.78295000
1.75999999	17.80755000
1.79999999	4.33362800
1.83999999	-4.63881300
1.87999999	-18.11273000
1.91999999	-27.10044000
1.95999999	-36.08813000
1.99999999	-40.57436000
2.03999999	-54.04828000
2.07999999	-58.54976000
2.11999999	-63.03598000
2.15999999	-67.52220000
2.19999999	-72.02368000
2.23999999	-81.01138000
2.27999999	-89.98383000
2.31999999	-89.98383000
2.35999999	-98.97152000
2.39999999	-107.95920000
2.43999999	-107.95920000
2.47999998	-116.94690000
2.51999998	-121.43310000
2.55999998	-125.91940000
2.59999998	-125.91940000
2.63999998	-125.91940000
2.67999998	-125.91940000
2.71999998	-125.91940000
2.75999998	-116.94690000
2.79999998	-107.95920000
2.83999998	-98.97152000
2.87999998	-89.98383000
2.91999998	-76.50990000
2.95999998	-63.03598000
2.99999998	-54.04828000
3.03999998	-40.57436000
3.07999998	-22.59896000
3.11999998	-13.62651000
3.15999998	-0.15259250
3.19999998	13.32133000
3.23999998	26.79525000
3.27999998	35.78295000
3.31999998	44.75539000
3.35999998	53.74309000
3.39999998	62.73079000
3.43999998	71.71850000
3.47999998	76.20471000
3.51999998	85.19241000
3.55999998	89.67863000
3.59999998	98.66634000
3.63999998	107.65400000
3.67999998	112.14030000
3.71999998	121.12800000
3.75999998	125.61420000
3.79999998	130.11560000
3.83999998	134.60190000
3.87999998	139.10340000
3.91999998	139.10340000
3.95999998	139.10340000
3.99999998	134.60190000
4.03999998	130.11560000
4.07999998	121.12800000
4.11999997	112.14030000
4.15999997	103.15250000
4.19999997	85.19241000
4.23999997	71.71850000
4.27999997	62.73079000
4.31999997	49.25687000
4.35999997	35.78295000
4.39999997	22.29377000
4.43999997	8.81984900
4.47999997	-0.15259250
4.51999997	-13.62651000
4.55999997	-22.59896000
4.59999997	-36.08813000
4.63999997	-40.57436000
4.67999997	-49.56206000
4.71999997	-54.04828000
4.75999997	-63.03598000
4.79999997	-67.52220000
4.83999997	-72.02368000
4.87999997	-81.01138000
4.91999997	-85.49760000
4.95999997	-89.98383000
4.99999997	-98.97152000
5.03999997	-103.45770000
5.07999997	-107.95920000
5.11999997	-112.44540000
5.15999997	-121.43310000
5.19999997	-125.91940000
5.23999997	-125.91940000
5.27999997	-130.42080000
5.31999997	-125.91940000
5.35999997	-125.91940000
5.39999997	-116.94690000
5.43999997	-112.44540000
5.47999997	-103.45770000
5.51999997	-89.98383000
5.55999997	-81.01138000
5.59999997	-72.02368000
5.63999997	-58.54976000
5.67999997	-40.57436000
5.71999997	-27.10044000
5.75999996	-18.11273000
5.79999996	-0.15259250
5.83999996	13.32133000
5.87999996	22.29377000
5.91999996	35.78295000
5.95999996	35.78295000
5.99999996	44.75539000
6.03999996	44.75539000
6.07999996	49.25687000
6.11999996	53.74309000
6.15999996	62.73079000
6.19999996	71.71850000
6.23999996	94.18011000
6.27999996	116.64170000
6.31999996	130.11560000
6.35999996	143.58960000
6.39999996	161.56500000
6.43999996	166.05120000
6.47999996	161.56500000
6.51999996	148.07580000
6.55999996	139.10340000
6.59999996	134.60190000
6.63999996	125.61420000
6.67999996	116.64170000
6.71999996	107.65400000
6.75999996	98.66634000
6.79999996	89.67863000
6.83999996	80.70620000
6.87999996	67.21701000
6.91999996	53.74309000
6.95999996	40.26917000
6.99999996	31.28147000
7.03999996	17.80755000
7.07999996	4.33362800
7.11999996	-4.63881300
7.15999996	-13.62651000
7.19999996	-22.59896000
7.23999996	-31.58666000
7.27999996	-36.08813000
7.31999996	-40.57436000
7.35999996	-40.57436000
7.39999996	-45.06058000
7.43999995	-54.04828000
7.47999995	-58.54976000
7.51999995	-72.02368000
7.55999995	-81.01138000
7.59999995	-89.98383000
7.63999995	-98.97152000
7.67999995	-107.95920000
7.71999995	-116.94690000
7.75999995	-125.91940000
7.79999995	-125.91940000
7.83999995	-125.91940000
7.87999995	-125.91940000
7.91999995	-125.91940000
7.95999995	-125.91940000
7.99999995	-125.91940000
8.03999995	-121.43310000
8.07999995	-116.94690000
8.11999995	-107.95920000
8.15999995	-98.97152000
8.19999995	-81.01138000
8.23999995	-67.52220000
8.27999995	-54.04828000
8.31999995	-36.08813000
8.35999995	-22.59896000
8.39999995	-9.12503300
8.43999995	-0.15259250
8.47999995	13.32133000
8.51999995	22.29377000
8.55999995	31.28147000
8.59999995	40.26917000
8.63999995	44.75539000
8.67999995	53.74309000
8.71999995	62.73079000
8.75999995	71.71850000
8.79999995	71.71850000
8.83999995	80.70620000
8.87999995	89.67863000
8.91999995	98.66634000
8.95999995	107.65400000
8.99999995	112.14030000
9.03999995	121.12800000
9.07999994	125.61420000
9.11999994	134.60190000
9.15999994	139.10340000
9.19999994	139.10340000
9.23999994	139.10340000
9.27999994	139.10340000
9.31999994	134.60190000
9.35999994	130.11560000
9.39999994	121.12800000
9.43999994	107.65400000
9.47999994	98.66634000
9.51999994	80.70620000
9.55999994	71.71850000
9.59999994	53.74309000
9.63999994	35.78295000
9.67999994	22.29377000
9.71999994	8.81984900
9.75999994	-0.15259250
9.79999994	-9.12503300
9.83999994	-22.59896000
9.87999994	-27.10044000
9.91999994	-36.08813000
9.95999994	-45.06058000
9.99999994	-54.04828000
10.03999994	-58.54976000
10.07999994	-63.03598000
10.11999994	-72.02368000
10.15999994	-76.50990000
10.19999994	-81.01138000
10.23999994	-85.49760000
10.27999994	-89.98383000
10.31999994	-98.97152000
10.35999994	-103.45770000
10.39999994	-107.95920000
10.43999994	-112.44540000
10.47999994	-121.43310000
10.51999994	-125.91940000
10.55999994	-125.91940000
10.59999994	-125.91940000
10.63999994	-125.91940000
10.67999994	-125.91940000
10.71999993	-116.94690000
10.75999993	-107.95920000
10.79999993	-98.97152000
10.83999993	-89.98383000
10.87999993	-76.50990000
10.91999993	-63.03598000
10.95999993	-49.56206000
10.99999993	-36.08813000
11.03999993	-22.59896000
11.07999993	-9.12503300
11.11999993	4.33362800
11.15999993	17.80755000
11.19999993	31.28147000
11.23999993	35.78295000
11.27999993	44.75539000
11.31999993	62.73079000
11.35999993	71.71850000
11.39999993	71.71850000
11.43999993	76.20471000
11.47999993	80.70620000
11.51999993	89.67863000
11.55999993	98.66634000
11.59999993	103.15250000
11.63999993	112.14030000
11.67999993	121.12800000
11.71999993	121.12800000
11.75999993	130.11560000
11.79999993	134.60190000
11.83999993	134.60190000
11.87999993	139.10340000
11.91999993	139.10340000
11.95999993	134.60190000
11.99999993	125.61420000
12.03999993	121.12800000
12.07999993	107.65400000
12.11999993	98.66634000
12.15999993	85.19241000
12.19999993	71.71850000
12.23999993	58.24457000
12.27999993	44.75539000
12.31999993	31.28147000
12.35999992	17.80755000
12.39999992	4.33362800
12.43999992	-4.63881300
12.47999992	-18.11273000
12.51999992	-27.10044000
12.55999992	-36.08813000
12.59999992	-45.06058000
12.63999992	-54.04828000
12.67999992	-58.54976000
12.71999992	-67.52220000
12.75999992	-72.02368000
12.79999992	-76.50990000
12.83999992	-81.01138000
12.87999992	-89.98383000
12.91999992	-94.48530000
12.95999992	-98.97152000
12.99999992	-107.95920000
13.03999992	-107.95920000
13.07999992	-112.44540000
13.11999992	-116.94690000
13.15999992	-121.43310000
13.19999992	-125.91940000
13.23999992	-125.91940000
13.27999992	-125.91940000
13.31999992	-121.43310000
13.35999992	-112.44540000
13.39999992	-107.95920000
13.43999992	-98.97152000
13.47999992	-89.98383000
13.51999992	-76.50990000
13.55999992	-67.52220000
13.59999992	-54.04828000
13.63999992	-36.08813000
13.67999992	-22.59896000
13.71999992	-13.62651000
13.75999992	-0.15259250
13.79999992	13.32133000
13.83999992	26.79525000
13.87999992	35.78295000
13.91999992	44.75539000
13.95999992	53.74309000
13.99999991	67.21701000
14.03999991	71.71850000
14.07999991	76.20471000
14.11999991	85.19241000
14.15999991	89.67863000
14.19999991	103.15250000
14.23999991	107.65400000
14.27999991	112.14030000
14.31999991	121.12800000
14.35999991	125.61420000
14.39999991	130.11560000
14.43999991	134.60190000
14.47999991	139.10340000
14.51999991	139.10340000
14.55999991	134.60190000
14.59999991	134.60190000
14.63999991	125.61420000
14.67999991	116.64170000
14.71999991	112.14030000
14.75999991	98.66634000
14.79999991	85.19241000
14.83999991	71.71850000
14.87999991	58.24457000
14.91999991	49.25687000
14.95999991	35.78295000
14.99999991	17.80755000
15.03999991	8.81984900
15.07999991	-4.63881300
15.11999991	-18.11273000
15.15999991	-22.59896000
15.19999991	-36.08813000
15.23999991	-40.57436000
15.27999991	-49.56206000
15.31999991	-58.54976000
15.35999991	-63.03598000
15.39999991	-72.02368000
15.43999991	-76.50990000
15.47999991	-81.01138000
15.51999991	-85.49760000
15.55999991	-89.98383000
15.59999991	-98.97152000
15.63999990	-107.95920000
15.67999990	-107.95920000
15.71999990	-116.94690000
15.75999990	-121.43310000
15.79999990	-125.91940000
15.83999990	-125.91940000
15.87999990	-125.91940000
15.91999990	-125.91940000
15.95999990	-121.43310000
15.99999990	-116.94690000
16.03999990	-107.95920000
16.07999990	-103.45770000
16.11999990	-94.48530000
16.15999990	-89.98383000
16.19999990	-72.02368000
16.23999990	-54.04828000
16.27999990	-40.57436000
16.31999990	-27.10044000
16.35999990	-13.62651000
16.39999990	-0.15259250
16.43999990	13.32133000
16.47999990	22.29377000
16.51999990	35.78295000
16.55999990	44.75539000
16.59999990	53.74309000
16.63999990	62.73079000
16.67999990	71.71850000
16.71999990	76.20471000
16.75999990	80.70620000
16.79999990	89.67863000
16.83999990	94.18011000
16.87999990	103.15250000
16.91999990	107.65400000
16.95999990	116.64170000
16.99999990	125.61420000
17.03999990	130.11560000
17.07999990	134.60190000
17.11999990	139.10340000
17.15999990	139.10340000
17.19999990	139.10340000
17.23999990	134.60190000
17.27999989	125.61420000
17.31999989	125.61420000
17.35999989	112.14030000
17.39999989	103.15250000
17.43999989	89.67863000
17.47999989	76.20471000
17.51999989	62.73079000
17.55999989	49.25687000
17.59999989	35.78295000
17.63999989	22.29377000
17.67999989	13.32133000
17.71999989	-0.15259250
17.75999989	-13.62651000
17.79999989	-22.59896000
17.83999989	-31.58666000
17.87999989	-40.57436000
17.91999989	-49.56206000
17.95999989	-54.04828000
17.99999989	-63.03598000
18.03999989	-67.52220000
18.07999989	-72.02368000
18.11999989	-76.50990000
18.15999989	-85.49760000
18.19999989	-89.98383000
18.23999989	-98.97152000
18.27999989	-103.45770000
18.31999989	-107.95920000
18.35999989	-112.44540000
18.39999989	-116.94690000
18.43999989	-121.43310000
18.47999989	-125.91940000
18.51999989	-125.91940000
18.55999989	-125.91940000
18.59999989	-125.91940000
18.63999989	-116.94690000
18.67999989	-112.44540000
18.71999989	-103.45770000
18.75999989	-94.48530000
18.79999989	-85.49760000
18.83999989	-72.02368000
18.87999989	-58.54976000
18.91999989	-45.06058000
18.95999988	-31.58666000
18.99999988	-18.11273000
19.03999988	-4.63881300
19.07999988	4.33362800
19.11999988	22.29377000
19.15999988	31.28147000
19.19999988	40.26917000
19.23999988	49.25687000
19.27999988	58.24457000
19.31999988	67.21701000
19.35999988	71.71850000
19.39999988	80.70620000
19.43999988	89.67863000
19.47999988	94.18011000
19.51999988	107.65400000
19.55999988	112.14030000
19.59999988	116.64170000
19.63999988	125.61420000
19.67999988	125.61420000
19.71999988	134.60190000
19.75999988	139.10340000
19.79999988	139.10340000
19.83999988	139.10340000
19.87999988	139.10340000
19.91999988	130.11560000
19.95999988	125.61420000
19.99999988	116.64170000
20.03999988	107.65400000
20.07999988	89.67863000
20.11999988	80.70620000
20.15999988	67.21701000
20.19999988	53.74309000
20.23999988	40.26917000
20.27999988	26.79525000
20.31999988	13.32133000
20.35999988	-0.15259250
20.39999988	-9.12503300
20.43999988	-18.11273000
20.47999988	-31.58666000
20.51999988	-36.08813000
20.55999988	-45.06058000
20.59999987	-54.04828000
20.63999987	-58.54976000
20.67999987	-63.03598000
20.71999987	-67.52220000
20.75999987	-76.50990000
20.79999987	-85.49760000
20.83999987	-89.98383000
20.87999987	-94.48530000
20.91999987	-103.45770000
20.95999987	-107.95920000
20.99999987	-112.44540000
21.03999987	-116.94690000
21.07999987	-121.43310000
21.11999987	-125.91940000
21.15999987	-125.91940000
21.19999987	-125.91940000
21.23999987	-125.91940000
21.27999987	-121.43310000
21.31999987	-112.44540000
21.35999987	-107.95920000
21.39999987	-94.48530000
21.43999987	-85.49760000
21.47999987	-72.02368000
21.51999987	-63.03598000
21.55999987	-49.56206000
21.59999987	-36.08813000
21.63999987	-22.59896000
21.67999987	-4.63881300
21.71999987	4.33362800
21.75999987	17.80755000
21.79999987	31.28147000
21.83999987	35.78295000
21.87999987	49.25687000
21.91999987	58.24457000
21.95999987	67.21701000
21.99999987	71.71850000
22.03999987	76.20471000
22.07999987	85.19241000
22.11999987	89.67863000
22.15999987	98.66634000
22.19999987	107.65400000
22.23999986	116.64170000
22.27999986	121.12800000
22.31999986	125.61420000
22.35999986	134.60190000
22.39999986	134.60190000
22.43999986	139.10340000
22.47999986	139.10340000
22.51999986	139.10340000
22.55999986	134.60190000
22.59999986	125.61420000
22.63999986	121.12800000
22.67999986	107.65400000
22.71999986	94.18011000
22.75999986	80.70620000
22.79999986	67.21701000
22.83999986	58.24457000
22.87999986	40.26917000
22.91999986	31.28147000
22.95999986	17.80755000
22.99999986	4.33362800
23.03999986	-4.63881300
23.07999986	-18.11273000
23.11999986	-27.10044000
23.15999986	-36.08813000
23.19999986	-40.57436000
23.23999986	-54.04828000
23.27999986	-58.54976000
23.31999986	-63.03598000
23.35999986	-72.02368000
23.39999986	-76.50990000
23.43999986	-81.01138000
23.47999986	-89.98383000
23.51999986	-94.48530000
23.55999986	-98.97152000
23.59999986	-107.95920000
23.63999986	-112.44540000
23.67999986	-116.94690000
23.71999986	-125.91940000
23.75999986	-125.91940000
23.79999986	-125.91940000
23.83999986	-125.91940000
23.87999985	-125.91940000
23.91999985	-125.91940000
23.95999985	-112.44540000
23.99999985	-107.95920000
24.03999985	-98.97152000
24.07999985	-89.98383000
24.11999985	-76.50990000
24.15999985	-67.52220000
24.19999985	-54.04828000
24.23999985	-36.08813000
24.27999985	-22.59896000
24.31999985	-9.12503300
24.35999985	4.33362800
24.39999985	13.32133000
24.43999985	26.79525000
24.47999985	35.78295000
24.51999985	44.75539000
24.55999985	53.74309000
24.59999985	62.73079000
24.63999985	71.71850000
24.67999985	76.20471000
24.71999985	85.19241000
24.75999985	89.67863000
24.79999985	98.66634000
24.83999985	107.65400000
24.87999985	112.14030000
24.91999985	121.12800000
24.95999985	125.61420000
24.99999985	130.11560000
25.03999985	134.60190000
25.07999985	139.10340000
25.11999985	139.10340000
25.15999985	139.10340000
25.19999985	134.60190000
25.23999985	125.61420000
25.27999985	116.64170000
25.31999985	112.14030000
25.35999985	98.66634000
25.39999985	85.19241000
25.43999985	71.71850000
25.47999985	62.73079000
25.51999984	44.75539000
25.55999984	31.28147000
25.59999984	17.80755000
25.63999984	8.81984900
25.67999984	-4.63881300
25.71999984	-18.11273000
25.75999984	-22.59896000
25.79999984	-36.08813000
25.83999984	-40.57436000
25.87999984	-49.56206000
25.91999984	-58.54976000
25.95999984	-63.03598000
25.99999984	-72.02368000
26.03999984	-76.50990000
26.07999984	-81.01138000
26.11999984	-81.01138000
26.15999984	-94.48530000
26.19999984	-98.97152000
26.23999984	-107.95920000
26.27999984	-107.95920000
26.31999984	-116.94690000
26.35999984	-121.43310000
26.39999984	-125.91940000
26.43999984	-125.91940000
26.47999984	-125.91940000
26.51999984	-125.91940000
26.55999984	-121.43310000
26.59999984	-116.94690000
26.63999984	-107.95920000
26.67999984	-103.45770000
26.71999984	-89.98383000
26.75999984	-81.01138000
26.79999984	-72.02368000
26.83999984	-54.04828000
26.87999984	-40.57436000
26.91999984	-27.10044000
26.95999984	-13.62651000
26.99999984	-0.15259250
27.03999984	13.32133000
27.07999984	22.29377000
27.11999984	35.78295000
27.15999983	44.75539000
27.19999983	53.74309000
27.23999983	62.73079000
27.27999983	71.71850000
27.31999983	76.20471000
27.35999983	80.70620000
27.39999983	89.67863000
27.43999983	94.18011000
27.47999983	103.15250000
27.51999983	112.14030000
27.55999983	121.12800000
27.59999983	125.61420000
27.63999983	130.11560000
27.67999983	134.60190000
27.71999983	139.10340000
27.75999983	134.60190000
27.79999983	139.10340000
27.83999983	134.60190000
27.87999983	130.11560000
27.91999983	125.61420000
27.95999983	112.14030000
27.99999983	103.15250000
28.03999983	89.67863000
28.07999983	76.20471000
28.11999983	62.73079000
28.15999983	53.74309000
28.19999983	49.25687000
28.23999983	53.74309000
28.27999983	44.75539000
28.31999983	17.80755000
28.35999983	-9.12503300
28.39999983	-22.59896000
28.43999983	-40.57436000
28.47999983	-72.02368000
28.51999983	-94.48530000
28.55999983	-103.45770000
28.59999983	-94.48530000
28.63999983	-81.01138000
28.67999983	-81.01138000
28.71999983	-81.01138000
28.75999983	-81.01138000
28.79999982	-72.02368000
28.83999982	-76.50990000
28.87999982	-89.98383000
28.91999982	-103.45770000
28.95999982	-107.95920000
28.99999982	-103.45770000
29.03999982	-107.95920000
29.07999982	-112.44540000
29.11999982	-121.43310000
29.15999982	-121.43310000
29.19999982	-116.94690000
29.23999982	-107.95920000
29.27999982	-107.95920000
29.31999982	-103.45770000
29.35999982	-94.48530000
29.39999982	-81.01138000
29.43999982	-72.02368000
29.47999982	-67.52220000
29.51999982	-58.54976000
29.55999982	-49.56206000
29.59999982	-31.58666000
29.63999982	-18.11273000
29.67999982	-0.15259250
29.71999982	17.80755000
29.75999982	35.78295000
29.79999982	49.25687000
29.83999982	67.21701000
29.87999982	71.71850000
29.91999982	76.20471000
29.95999982	76.20471000
29.99999982	80.70620000
30.03999982	85.19241000
30.07999982	89.67863000
30.11999982	98.66634000
30.15999982	107.65400000
30.19999982	121.12800000
30.23999982	130.11560000
30.27999982	134.60190000
30.31999982	134.60190000
30.35999982	134.60190000
30.39999982	134.60190000
30.43999982	130.11560000
30.47999981	125.61420000
30.51999981	121.12800000
30.55999981	116.64170000
30.59999981	107.65400000
30.63999981	103.15250000
30.67999981	89.67863000
30.71999981	80.70620000
30.75999981	67.21701000
30.79999981	53.74309000
30.83999981	40.26917000
30.87999981	26.79525000
30.91999981	8.81984900
30.95999981	4.33362800
30.99999981	-4.63881300
31.03999981	-18.11273000
31.07999981	-27.10044000
31.11999981	-36.08813000
31.15999981	-45.06058000
31.19999981	-54.04828000
31.23999981	-58.54976000
31.27999981	-63.03598000
