Time	Channel A
(us)	(mV)

0.00000000	79.06125000
0.04000000	79.06125000
0.08000000	77.26676000
0.12000000	70.07660000
0.16000000	64.68703000
0.20000000	57.50298000
0.24000000	50.31281000
0.28000000	43.12265000
0.32000000	34.13800000
0.36000000	26.95395000
0.40000000	21.55827000
0.44000000	14.37422000
0.48000000	12.57363000
0.52000000	7.18405700
0.56000000	3.58897700
0.60000000	0.00000000
0.64000000	-7.18405700
0.68000000	-14.37422000
0.72000000	-21.55827000
0.76000000	-30.54292000
0.80000000	-37.73308000
0.83999999	-44.92325000
0.87999999	-48.51222000
0.91999999	-50.31281000
0.95999999	-52.10730000
0.99999999	-53.90789000
1.03999999	-52.10730000
1.07999999	-44.92325000
1.11999999	-37.73308000
1.15999999	-34.13800000
1.19999999	-32.34352000
1.23999999	-30.54292000
1.27999999	-28.74844000
1.31999999	-26.95395000
1.35999999	-26.95395000
1.39999999	-26.95395000
1.43999999	-28.74844000
1.47999999	-28.74844000
1.51999999	-26.95395000
1.55999999	-26.95395000
1.59999999	-25.15336000
1.63999999	-21.55827000
1.67999999	-17.96930000
1.71999999	-14.37422000
1.75999999	-8.98464900
1.79999999	-5.38956800
1.83999999	-1.79448800
1.87999999	1.79448800
1.91999999	5.38956800
1.95999999	8.98464900
1.99999999	14.37422000
2.03999999	17.96930000
2.07999999	21.55827000
2.11999999	23.35887000
2.15999999	28.74844000
2.19999999	34.13800000
2.23999999	41.32816000
2.27999999	50.31281000
2.31999999	59.29746000
2.35999999	68.28211000
2.39999999	70.07660000
2.43999999	71.87719000
2.47999998	68.28211000
2.51999998	64.68703000
2.55999998	57.50298000
2.59999998	52.10730000
2.63999998	43.12265000
2.67999998	35.93859000
2.71999998	28.74844000
2.75999998	21.55827000
2.79999998	16.16870000
2.83999998	12.57363000
2.87999998	7.18405700
2.91999998	3.58897700
2.95999998	0.00000000
2.99999998	-3.58897700
3.03999998	-10.77914000
3.07999998	-17.96930000
3.11999998	-26.95395000
3.15999998	-35.93859000
3.19999998	-43.12265000
3.23999998	-48.51222000
3.27999998	-52.10730000
3.31999998	-55.70238000
3.35999998	-55.70238000
3.39999998	-52.10730000
3.43999998	-48.51222000
3.47999998	-44.92325000
3.51999998	-37.73308000
3.55999998	-30.54292000
3.59999998	-25.15336000
3.63999998	-25.15336000
3.67999998	-23.35887000
3.71999998	-23.35887000
3.75999998	-25.15336000
3.79999998	-26.95395000
3.83999998	-28.74844000
3.87999998	-28.74844000
3.91999998	-28.74844000
3.95999998	-26.95395000
3.99999998	-25.15336000
4.03999998	-21.55827000
4.07999998	-16.16870000
4.11999997	-10.77914000
4.15999997	-17.96930000
4.19999997	-12.57363000
4.23999997	3.58897700
4.27999997	7.18405700
4.31999997	5.38956800
4.35999997	5.38956800
4.39999997	12.57363000
4.43999997	21.55827000
4.47999997	21.55827000
4.51999997	26.95395000
4.55999997	34.13800000
4.59999997	43.12265000
4.63999997	50.31281000
4.67999997	61.09195000
4.71999997	70.07660000
4.75999997	73.67168000
4.79999997	71.87719000
4.83999997	71.87719000
4.87999997	68.28211000
4.91999997	61.09195000
4.95999997	52.10730000
4.99999997	46.71774000
5.03999997	41.32816000
5.07999997	32.34352000
5.11999997	25.15336000
5.15999997	17.96930000
5.19999997	14.37422000
5.23999997	5.38956800
5.27999997	-8.98464900
5.31999997	-34.13800000
5.35999997	-37.73308000
5.39999997	-28.74844000
5.43999997	-21.55827000
5.47999997	-21.55827000
5.51999997	-21.55827000
5.55999997	-7.18405700
5.59999997	5.38956800
5.63999997	1.79448800
5.67999997	-19.76379000
5.71999997	-41.32816000
5.75999996	-46.71774000
5.79999996	-46.71774000
5.83999996	-55.70238000
5.87999996	-62.89254000
5.91999996	-61.09195000
5.95999996	-46.71774000
5.99999996	-32.34352000
6.03999996	-28.74844000
6.07999996	-35.93859000
6.11999996	-37.73308000
6.15999996	-35.93859000
6.19999996	-32.34352000
6.23999996	-32.34352000
6.27999996	-35.93859000
6.31999996	-35.93859000
6.35999996	-28.74844000
6.39999996	-21.55827000
6.43999996	-16.16870000
6.47999996	-10.77914000
6.51999996	-3.58897700
6.55999996	5.38956800
6.59999996	12.57363000
6.63999996	19.76379000
6.67999996	17.96930000
6.71999996	17.96930000
6.75999996	16.16870000
6.79999996	16.16870000
6.83999996	14.37422000
6.87999996	14.37422000
6.91999996	17.96930000
6.95999996	26.95395000
6.99999996	41.32816000
7.03999996	53.90789000
7.07999996	62.89254000
7.11999996	73.67168000
7.15999996	77.26676000
7.19999996	75.47227000
7.23999996	71.87719000
7.27999996	61.09195000
7.31999996	53.90789000
7.35999996	48.51222000
7.39999996	41.32816000
7.43999995	35.93859000
7.47999995	30.54292000
7.51999995	26.95395000
7.55999995	23.35887000
7.59999995	17.96930000
7.63999995	12.57363000
7.67999995	5.38956800
7.71999995	-1.79448800
7.75999995	-10.77914000
7.79999995	-21.55827000
7.83999995	-30.54292000
7.87999995	-37.73308000
7.91999995	-46.71774000
7.95999995	-52.10730000
7.99999995	-57.50298000
8.03999995	-59.29746000
8.07999995	-57.50298000
8.11999995	-55.70238000
8.15999995	-50.31281000
8.19999995	-46.71774000
8.23999995	-35.93859000
8.27999995	-28.74844000
8.31999995	-21.55827000
8.35999995	-21.55827000
8.39999995	-19.76379000
8.43999995	-21.55827000
8.47999995	-23.35887000
8.51999995	-25.15336000
8.55999995	-26.95395000
8.59999995	-26.95395000
8.63999995	-28.74844000
8.67999995	-28.74844000
8.71999995	-26.95395000
8.75999995	-25.15336000
8.79999995	-23.35887000
8.83999995	-19.76379000
8.87999995	-14.37422000
8.91999995	-8.98464900
8.95999995	-3.58897700
8.99999995	-1.79448800
9.03999995	0.00000000
9.07999994	10.77914000
9.11999994	14.37422000
9.15999994	21.55827000
9.19999994	26.95395000
9.23999994	28.74844000
9.27999994	34.13800000
9.31999994	41.32816000
9.35999994	50.31281000
9.39999994	61.09195000
9.43999994	70.07660000
9.47999994	75.47227000
9.51999994	79.06125000
9.55999994	77.26676000
9.59999994	70.07660000
9.63999994	62.89254000
9.67999994	55.70238000
9.71999994	46.71774000
9.75999994	39.52757000
9.79999994	32.34352000
9.83999994	23.35887000
9.87999994	17.96930000
9.91999994	10.77914000
9.95999994	7.18405700
9.99999994	5.38956800
10.03999994	1.79448800
10.07999994	0.00000000
10.11999994	-5.38956800
10.15999994	-10.77914000
10.19999994	-19.76379000
10.23999994	-28.74844000
10.27999994	-35.93859000
10.31999994	-43.12265000
10.35999994	-50.31281000
10.39999994	-53.90789000
10.43999994	-55.70238000
10.47999994	-55.70238000
10.51999994	-52.10730000
10.55999994	-44.92325000
10.59999994	-37.73308000
10.63999994	-35.93859000
10.67999994	-35.93859000
10.71999993	-32.34352000
10.75999993	-30.54292000
10.79999993	-28.74844000
10.83999993	-30.54292000
10.87999993	-32.34352000
10.91999993	-32.34352000
10.95999993	-30.54292000
10.99999993	-28.74844000
11.03999993	-28.74844000
11.07999993	-25.15336000
11.11999993	-21.55827000
11.15999993	-16.16870000
11.19999993	-10.77914000
11.23999993	-7.18405700
11.27999993	-3.58897700
11.31999993	0.00000000
11.35999993	3.58897700
11.39999993	5.38956800
11.43999993	7.18405700
11.47999993	10.77914000
11.51999993	16.16870000
11.55999993	19.76379000
11.59999993	21.55827000
11.63999993	26.95395000
11.67999993	32.34352000
11.71999993	39.52757000
11.75999993	48.51222000
11.79999993	57.50298000
11.83999993	68.28211000
11.87999993	71.87719000
11.91999993	73.67168000
11.95999993	71.87719000
11.99999993	66.48762000
12.03999993	59.29746000
12.07999993	52.10730000
12.11999993	44.92325000
12.15999993	37.73308000
12.19999993	28.74844000
12.23999993	23.35887000
12.27999993	16.16870000
12.31999993	12.57363000
12.35999992	7.18405700
12.39999992	3.58897700
12.43999992	0.00000000
12.47999992	-5.38956800
12.51999992	-10.77914000
12.55999992	-16.16870000
12.59999992	-25.15336000
12.63999992	-34.13800000
12.67999992	-41.32816000
12.71999992	-48.51222000
12.75999992	-52.10730000
12.79999992	-55.70238000
12.83999992	-57.50298000
12.87999992	-53.90789000
12.91999992	-50.31281000
12.95999992	-41.32816000
12.99999992	-28.74844000
13.03999992	-23.35887000
13.07999992	-21.55827000
13.11999992	-19.76379000
13.15999992	-19.76379000
13.19999992	-23.35887000
13.23999992	-25.15336000
13.27999992	-26.95395000
13.31999992	-28.74844000
13.35999992	-30.54292000
13.39999992	-30.54292000
13.43999992	-30.54292000
13.47999992	-28.74844000
13.51999992	-25.15336000
13.55999992	-19.76379000
13.59999992	-12.57363000
13.63999992	-8.98464900
13.67999992	-3.58897700
13.71999992	0.00000000
13.75999992	1.79448800
13.79999992	3.58897700
13.83999992	7.18405700
13.87999992	14.37422000
13.91999992	19.76379000
13.95999992	26.95395000
13.99999991	23.35887000
14.03999991	28.74844000
14.07999991	52.10730000
14.11999991	64.68703000
14.15999991	70.07660000
14.19999991	71.87719000
14.23999991	77.26676000
14.27999991	79.06125000
14.31999991	75.47227000
14.35999991	66.48762000
14.39999991	61.09195000
14.43999991	53.90789000
14.47999991	46.71774000
14.51999991	37.73308000
14.55999991	30.54292000
14.59999991	23.35887000
14.63999991	16.16870000
14.67999991	12.57363000
14.71999991	8.98464900
14.75999991	5.38956800
14.79999991	0.00000000
14.83999991	-3.58897700
14.87999991	-8.98464900
14.91999991	-17.96930000
14.95999991	-26.95395000
14.99999991	-35.93859000
15.03999991	-43.12265000
15.07999991	-48.51222000
15.11999991	-53.90789000
15.15999991	-55.70238000
15.19999991	-55.70238000
15.23999991	-52.10730000
15.27999991	-48.51222000
15.31999991	-43.12265000
15.35999991	-37.73308000
15.39999991	-32.34352000
15.43999991	-28.74844000
15.47999991	-26.95395000
15.51999991	-28.74844000
15.55999991	-28.74844000
15.59999991	-28.74844000
15.63999990	-30.54292000
15.67999990	-30.54292000
15.71999990	-28.74844000
15.75999990	-26.95395000
15.79999990	-26.95395000
15.83999990	-25.15336000
15.87999990	-19.76379000
15.91999990	-14.37422000
15.95999990	-8.98464900
15.99999990	-5.38956800
16.03999990	0.00000000
16.07999990	3.58897700
16.11999990	7.18405700
16.15999990	8.98464900
16.19999990	10.77914000
16.23999990	14.37422000
16.27999990	17.96930000
16.31999990	21.55827000
16.35999990	25.15336000
16.39999990	30.54292000
16.43999990	39.52757000
16.47999990	46.71774000
16.51999990	57.50298000
16.55999990	64.68703000
16.59999990	70.07660000
16.63999990	71.87719000
16.67999990	71.87719000
16.71999990	66.48762000
16.75999990	59.29746000
16.79999990	53.90789000
16.83999990	46.71774000
16.87999990	39.52757000
16.91999990	30.54292000
16.95999990	25.15336000
16.99999990	17.96930000
17.03999990	14.37422000
17.07999990	8.98464900
17.11999990	5.38956800
17.15999990	1.79448800
17.19999990	-1.79448800
17.23999990	-7.18405700
17.27999989	-14.37422000
17.31999989	-23.35887000
17.35999989	-32.34352000
17.39999989	-39.52757000
17.43999989	-46.71774000
17.47999989	-53.90789000
17.51999989	-62.89254000
17.55999989	-50.31281000
17.59999989	-44.92325000
17.63999989	-32.34352000
17.67999989	-28.74844000
17.71999989	-23.35887000
17.75999989	-21.55827000
17.79999989	-21.55827000
17.83999989	-21.55827000
17.87999989	-23.35887000
17.91999989	-23.35887000
17.95999989	-26.95395000
17.99999989	-30.54292000
18.03999989	-30.54292000
18.07999989	-32.34352000
18.11999989	-32.34352000
18.15999989	-30.54292000
18.19999989	-25.15336000
18.23999989	-19.76379000
18.27999989	-14.37422000
18.31999989	-10.77914000
18.35999989	-5.38956800
18.39999989	-1.79448800
18.43999989	-1.79448800
18.47999989	0.00000000
18.51999989	3.58897700
18.55999989	7.18405700
18.59999989	12.57363000
18.63999989	17.96930000
18.67999989	21.55827000
18.71999989	28.74844000
18.75999989	37.73308000
18.79999989	46.71774000
18.83999989	55.70238000
18.87999989	62.89254000
18.91999989	73.67168000
18.95999988	75.47227000
18.99999988	79.06125000
19.03999988	77.26676000
19.07999988	70.07660000
19.11999988	62.89254000
19.15999988	55.70238000
19.19999988	48.51222000
19.23999988	41.32816000
19.27999988	34.13800000
19.31999988	26.95395000
19.35999988	21.55827000
19.39999988	16.16870000
19.43999988	10.77914000
19.47999988	7.18405700
19.51999988	3.58897700
19.55999988	-1.79448800
19.59999988	-7.18405700
19.63999988	-14.37422000
19.67999988	-23.35887000
19.71999988	-32.34352000
19.75999988	-41.32816000
19.79999988	-48.51222000
19.83999988	-52.10730000
19.87999988	-57.50298000
19.91999988	-57.50298000
19.95999988	-53.90789000
19.99999988	-50.31281000
20.03999988	-43.12265000
20.07999988	-39.52757000
20.11999988	-34.13800000
20.15999988	-28.74844000
20.19999988	-26.95395000
20.23999988	-26.95395000
20.27999988	-26.95395000
20.31999988	-25.15336000
20.35999988	-23.35887000
20.39999988	-28.74844000
20.43999988	-32.34352000
20.47999988	-28.74844000
20.51999988	-26.95395000
20.55999988	-21.55827000
20.59999987	-19.76379000
20.63999987	-14.37422000
20.67999987	-8.98464900
20.71999987	-5.38956800
20.75999987	0.00000000
20.79999987	3.58897700
20.83999987	5.38956800
20.87999987	8.98464900
20.91999987	12.57363000
20.95999987	16.16870000
20.99999987	17.96930000
21.03999987	21.55827000
21.07999987	25.15336000
21.11999987	32.34352000
21.15999987	41.32816000
21.19999987	46.71774000
21.23999987	57.50298000
21.27999987	66.48762000
21.31999987	70.07660000
21.35999987	71.87719000
21.39999987	70.07660000
21.43999987	64.68703000
21.47999987	59.29746000
21.51999987	52.10730000
21.55999987	44.92325000
21.59999987	37.73308000
21.63999987	30.54292000
21.67999987	25.15336000
21.71999987	19.76379000
21.75999987	14.37422000
21.79999987	10.77914000
21.83999987	5.38956800
21.87999987	3.58897700
21.91999987	-1.79448800
21.95999987	-7.18405700
21.99999987	-14.37422000
22.03999987	-21.55827000
22.07999987	-30.54292000
22.11999987	-39.52757000
22.15999987	-46.71774000
22.19999987	-52.10730000
22.23999986	-55.70238000
22.27999986	-57.50298000
22.31999986	-55.70238000
22.35999986	-52.10730000
22.39999986	-44.92325000
22.43999986	-41.32816000
22.47999986	-35.93859000
22.51999986	-30.54292000
22.55999986	-28.74844000
22.59999986	-30.54292000
22.63999986	-26.95395000
22.67999986	-30.54292000
22.71999986	-30.54292000
22.75999986	-28.74844000
22.79999986	-28.74844000
22.83999986	-25.15336000
22.87999986	-26.95395000
22.91999986	-23.35887000
22.95999986	-21.55827000
22.99999986	-17.96930000
23.03999986	-14.37422000
23.07999986	-10.77914000
23.11999986	-7.18405700
23.15999986	-3.58897700
23.19999986	-1.79448800
23.23999986	1.79448800
23.27999986	5.38956800
23.31999986	8.98464900
23.35999986	14.37422000
23.39999986	17.96930000
23.43999986	23.35887000
23.47999986	28.74844000
23.51999986	35.93859000
23.55999986	44.92325000
23.59999986	55.70238000
23.63999986	62.89254000
23.67999986	70.07660000
23.71999986	73.67168000
23.75999986	73.67168000
23.79999986	71.87719000
23.83999986	57.50298000
23.87999985	44.92325000
23.91999985	52.10730000
23.95999985	50.31281000
23.99999985	37.73308000
24.03999985	26.95395000
24.07999985	19.76379000
24.11999985	17.96930000
24.15999985	12.57363000
24.19999985	5.38956800
24.23999985	3.58897700
24.27999985	0.00000000
24.31999985	-5.38956800
24.35999985	-12.57363000
24.39999985	-19.76379000
24.43999985	-28.74844000
24.47999985	-37.73308000
24.51999985	-43.12265000
24.55999985	-48.51222000
24.59999985	-53.90789000
24.63999985	-55.70238000
24.67999985	-53.90789000
24.71999985	-52.10730000
24.75999985	-46.71774000
24.79999985	-43.12265000
24.83999985	-37.73308000
24.87999985	-32.34352000
24.91999985	-30.54292000
24.95999985	-28.74844000
24.99999985	-28.74844000
25.03999985	-28.74844000
25.07999985	-30.54292000
25.11999985	-30.54292000
25.15999985	-32.34352000
25.19999985	-28.74844000
25.23999985	-28.74844000
25.27999985	-28.74844000
25.31999985	-23.35887000
25.35999985	-19.76379000
25.39999985	-16.16870000
25.43999985	-10.77914000
25.47999985	-7.18405700
25.51999984	-1.79448800
25.55999984	0.00000000
25.59999984	3.58897700
25.63999984	7.18405700
25.67999984	12.57363000
25.71999984	14.37422000
25.75999984	17.96930000
25.79999984	21.55827000
25.83999984	25.15336000
25.87999984	30.54292000
25.91999984	37.73308000
25.95999984	46.71774000
25.99999984	55.70238000
26.03999984	64.68703000
26.07999984	71.87719000
26.11999984	71.87719000
26.15999984	70.07660000
26.19999984	64.68703000
26.23999984	61.09195000
26.27999984	53.90789000
26.31999984	46.71774000
26.35999984	37.73308000
26.39999984	32.34352000
26.43999984	25.15336000
26.47999984	17.96930000
26.51999984	12.57363000
26.55999984	8.98464900
26.59999984	5.38956800
26.63999984	0.00000000
26.67999984	-1.79448800
26.71999984	-8.98464900
26.75999984	-14.37422000
26.79999984	-23.35887000
26.83999984	-32.34352000
26.87999984	-39.52757000
26.91999984	-46.71774000
26.95999984	-52.10730000
26.99999984	-55.70238000
27.03999984	-55.70238000
27.07999984	-53.90789000
27.11999984	-50.31281000
27.15999983	-44.92325000
27.19999983	-43.12265000
27.23999983	-35.93859000
27.27999983	-28.74844000
27.31999983	-23.35887000
27.35999983	-23.35887000
27.39999983	-23.35887000
27.43999983	-25.15336000
27.47999983	-25.15336000
27.51999983	-28.74844000
27.55999983	-28.74844000
27.59999983	-28.74844000
27.63999983	-26.95395000
27.67999983	-25.15336000
27.71999983	-23.35887000
27.75999983	-17.96930000
27.79999983	-14.37422000
27.83999983	-10.77914000
27.87999983	-7.18405700
27.91999983	-1.79448800
27.95999983	0.00000000
27.99999983	3.58897700
28.03999983	7.18405700
28.07999983	12.57363000
28.11999983	17.96930000
28.15999983	21.55827000
28.19999983	25.15336000
28.23999983	30.54292000
28.27999983	37.73308000
28.31999983	48.51222000
28.35999983	57.50298000
28.39999983	66.48762000
28.43999983	73.67168000
28.47999983	75.47227000
28.51999983	73.67168000
28.55999983	70.07660000
28.59999983	64.68703000
28.63999983	57.50298000
28.67999983	48.51222000
28.71999983	35.93859000
28.75999983	34.13800000
28.79999982	25.15336000
28.83999982	21.55827000
28.87999982	14.37422000
28.91999982	8.98464900
28.95999982	3.58897700
28.99999982	0.00000000
29.03999982	-1.79448800
29.07999982	-7.18405700
29.11999982	-14.37422000
29.15999982	-21.55827000
29.19999982	-30.54292000
29.23999982	-37.73308000
29.27999982	-44.92325000
29.31999982	-52.10730000
29.35999982	-57.50298000
29.39999982	-52.10730000
29.43999982	-50.31281000
29.47999982	-43.12265000
29.51999982	-37.73308000
29.55999982	-32.34352000
29.59999982	-28.74844000
29.63999982	-26.95395000
29.67999982	-25.15336000
29.71999982	-25.15336000
29.75999982	-25.15336000
29.79999982	-28.74844000
29.83999982	-28.74844000
29.87999982	-30.54292000
29.91999982	-32.34352000
29.95999982	-30.54292000
29.99999982	-28.74844000
30.03999982	-23.35887000
30.07999982	-16.16870000
30.11999982	-16.16870000
30.15999982	-14.37422000
30.19999982	-8.98464900
30.23999982	-3.58897700
30.27999982	1.79448800
30.31999982	3.58897700
30.35999982	3.58897700
30.39999982	10.77914000
30.43999982	14.37422000
30.47999981	17.96930000
30.51999981	21.55827000
30.55999981	26.95395000
30.59999981	32.34352000
30.63999981	41.32816000
30.67999981	48.51222000
30.71999981	59.29746000
30.75999981	64.68703000
30.79999981	71.87719000
30.83999981	75.47227000
30.87999981	73.67168000
30.91999981	70.07660000
30.95999981	64.68703000
30.99999981	57.50298000
31.03999981	50.31281000
31.07999981	43.12265000
31.11999981	34.13800000
31.15999981	28.74844000
31.19999981	21.55827000
31.23999981	16.16870000
31.27999981	10.77914000
31.31999981	5.38956800
31.35999981	1.79448800
31.39999981	-1.79448800
31.43999981	-7.18405700
31.47999981	-14.37422000
31.51999981	-21.55827000
31.55999981	-28.74844000
31.59999981	-37.73308000
31.63999981	-43.12265000
31.67999981	-52.10730000
31.71999981	-53.90789000
31.75999981	-57.50298000
31.79999981	-50.31281000
31.83999981	-41.32816000
