Time	Channel A
(us)	(mV)

0.00000000	4.33362800
0.04000000	-4.63881300
0.08000000	-13.62651000
0.12000000	-27.10044000
0.16000000	-40.57436000
0.20000000	-54.04828000
0.24000000	-63.03598000
0.28000000	-72.02368000
0.32000000	-76.50990000
0.36000000	-72.02368000
0.40000000	-72.02368000
0.44000000	-72.02368000
0.48000000	-63.03598000
0.52000000	-58.54976000
0.56000000	-54.04828000
0.60000000	-40.57436000
0.64000000	-36.08813000
0.68000000	-31.58666000
0.72000000	-31.58666000
0.76000000	-31.58666000
0.80000000	-31.58666000
0.83999999	-31.58666000
0.87999999	-27.10044000
0.91999999	-18.11273000
0.95999999	-13.62651000
0.99999999	-9.12503300
1.03999999	-0.15259250
1.07999999	8.81984900
1.11999999	17.80755000
1.15999999	26.79525000
1.19999999	44.75539000
1.23999999	58.24457000
1.27999999	71.71850000
1.31999999	76.20471000
1.35999999	85.19241000
1.39999999	85.19241000
1.43999999	85.19241000
1.47999999	80.70620000
1.51999999	76.20471000
1.55999999	71.71850000
1.59999999	67.21701000
1.63999999	62.73079000
1.67999999	53.74309000
1.71999999	49.25687000
1.75999999	40.26917000
1.79999999	31.28147000
1.83999999	26.79525000
1.87999999	17.80755000
1.91999999	8.81984900
1.95999999	-0.15259250
1.99999999	-9.12503300
2.03999999	-22.59896000
2.07999999	-36.08813000
2.11999999	-49.56206000
2.15999999	-58.54976000
2.19999999	-72.02368000
2.23999999	-72.02368000
2.27999999	-72.02368000
2.31999999	-76.50990000
2.35999999	-72.02368000
2.39999999	-67.52220000
2.43999999	-54.04828000
2.47999998	-49.56206000
2.51999998	-45.06058000
2.55999998	-40.57436000
2.59999998	-36.08813000
2.63999998	-31.58666000
2.67999998	-31.58666000
2.71999998	-31.58666000
2.75999998	-31.58666000
2.79999998	-27.10044000
2.83999998	-22.59896000
2.87999998	-18.11273000
2.91999998	-13.62651000
2.95999998	-4.63881300
2.99999998	-0.15259250
3.03999998	13.32133000
3.07999998	22.29377000
3.11999998	35.78295000
3.15999998	53.74309000
3.19999998	67.21701000
3.23999998	76.20471000
3.27999998	85.19241000
3.31999998	89.67863000
3.35999998	85.19241000
3.39999998	85.19241000
3.43999998	76.20471000
3.47999998	71.71850000
3.51999998	67.21701000
3.55999998	62.73079000
3.59999998	53.74309000
3.63999998	49.25687000
3.67999998	40.26917000
3.71999998	35.78295000
3.75999998	31.28147000
3.79999998	22.29377000
3.83999998	13.32133000
3.87999998	4.33362800
3.91999998	-4.63881300
3.95999998	-13.62651000
3.99999998	-27.10044000
4.03999998	-40.57436000
4.07999998	-54.04828000
4.11999997	-63.03598000
4.15999997	-72.02368000
4.19999997	-76.50990000
4.23999997	-76.50990000
4.27999997	-72.02368000
4.31999997	-67.52220000
4.35999997	-58.54976000
4.39999997	-54.04828000
4.43999997	-49.56206000
4.47999997	-45.06058000
4.51999997	-40.57436000
4.55999997	-36.08813000
4.59999997	-36.08813000
4.63999997	-36.08813000
4.67999997	-31.58666000
4.71999997	-31.58666000
4.75999997	-27.10044000
4.79999997	-22.59896000
4.83999997	-18.11273000
4.87999997	-9.12503300
4.91999997	-0.15259250
4.95999997	8.81984900
4.99999997	17.80755000
5.03999997	31.28147000
5.07999997	44.75539000
5.11999997	58.24457000
5.15999997	71.71850000
5.19999997	76.20471000
5.23999997	80.70620000
5.27999997	85.19241000
5.31999997	85.19241000
5.35999997	80.70620000
5.39999997	76.20471000
5.43999997	71.71850000
5.47999997	71.71850000
5.51999997	58.24457000
5.55999997	40.26917000
5.59999997	40.26917000
5.63999997	44.75539000
5.67999997	35.78295000
5.71999997	26.79525000
5.75999996	17.80755000
5.79999996	8.81984900
5.83999996	4.33362800
5.87999996	-9.12503300
5.91999996	-22.59896000
5.95999996	-36.08813000
5.99999996	-49.56206000
6.03999996	-58.54976000
6.07999996	-67.52220000
6.11999996	-72.02368000
6.15999996	-72.02368000
6.19999996	-72.02368000
6.23999996	-67.52220000
6.27999996	-63.03598000
6.31999996	-58.54976000
6.35999996	-54.04828000
6.39999996	-45.06058000
6.43999996	-45.06058000
6.47999996	-40.57436000
6.51999996	-36.08813000
6.55999996	-36.08813000
6.59999996	-36.08813000
6.63999996	-31.58666000
6.67999996	-31.58666000
6.71999996	-22.59896000
6.75999996	-22.59896000
6.79999996	-13.62651000
6.83999996	-4.63881300
6.87999996	-0.15259250
6.91999996	13.32133000
6.95999996	17.80755000
6.99999996	31.28147000
7.03999996	49.25687000
7.07999996	62.73079000
7.11999996	71.71850000
7.15999996	80.70620000
7.19999996	85.19241000
7.23999996	85.19241000
7.27999996	85.19241000
7.31999996	80.70620000
7.35999996	71.71850000
7.39999996	71.71850000
7.43999995	67.21701000
7.47999995	58.24457000
7.51999995	49.25687000
7.55999995	44.75539000
7.59999995	35.78295000
7.63999995	31.28147000
7.67999995	22.29377000
7.71999995	13.32133000
7.75999995	8.81984900
7.79999995	-0.15259250
7.83999995	-13.62651000
7.87999995	-27.10044000
7.91999995	-40.57436000
7.95999995	-54.04828000
7.99999995	-58.54976000
8.03999995	-72.02368000
8.07999995	-72.02368000
8.11999995	-72.02368000
8.15999995	-72.02368000
8.19999995	-63.03598000
8.23999995	-63.03598000
8.27999995	-54.04828000
8.31999995	-54.04828000
8.35999995	-45.06058000
8.39999995	-40.57436000
8.43999995	-36.08813000
8.47999995	-36.08813000
8.51999995	-36.08813000
8.55999995	-31.58666000
8.59999995	-31.58666000
8.63999995	-27.10044000
8.67999995	-22.59896000
8.71999995	-18.11273000
8.75999995	-13.62651000
8.79999995	-0.15259250
8.83999995	4.33362800
8.87999995	13.32133000
8.91999995	26.79525000
8.95999995	35.78295000
8.99999995	53.74309000
9.03999995	67.21701000
9.07999994	76.20471000
9.11999994	85.19241000
9.15999994	89.67863000
9.19999994	85.19241000
9.23999994	85.19241000
9.27999994	76.20471000
9.31999994	71.71850000
9.35999994	67.21701000
9.39999994	62.73079000
9.43999994	53.74309000
9.47999994	49.25687000
9.51999994	44.75539000
9.55999994	35.78295000
9.59999994	26.79525000
9.63999994	22.29377000
9.67999994	13.32133000
9.71999994	4.33362800
9.75999994	-4.63881300
9.79999994	-18.11273000
9.83999994	-27.10044000
9.87999994	-40.57436000
9.91999994	-54.04828000
9.95999994	-63.03598000
9.99999994	-72.02368000
10.03999994	-72.02368000
10.07999994	-72.02368000
10.11999994	-72.02368000
10.15999994	-63.03598000
10.19999994	-63.03598000
10.23999994	-54.04828000
10.27999994	-49.56206000
10.31999994	-45.06058000
10.35999994	-40.57436000
10.39999994	-40.57436000
10.43999994	-36.08813000
10.47999994	-36.08813000
10.51999994	-31.58666000
10.55999994	-27.10044000
10.59999994	-22.59896000
10.63999994	-22.59896000
10.67999994	-18.11273000
10.71999993	-13.62651000
10.75999993	-0.15259250
10.79999993	4.33362800
10.83999993	13.32133000
10.87999993	26.79525000
10.91999993	40.26917000
10.95999993	53.74309000
10.99999993	67.21701000
11.03999993	80.70620000
11.07999993	85.19241000
11.11999993	85.19241000
11.15999993	85.19241000
11.19999993	80.70620000
11.23999993	76.20471000
11.27999993	71.71850000
11.31999993	67.21701000
11.35999993	62.73079000
11.39999993	53.74309000
11.43999993	44.75539000
11.47999993	35.78295000
11.51999993	35.78295000
11.55999993	26.79525000
11.59999993	17.80755000
11.63999993	13.32133000
11.67999993	4.33362800
11.71999993	-4.63881300
11.75999993	-18.11273000
11.79999993	-31.58666000
11.83999993	-45.06058000
11.87999993	-58.54976000
11.91999993	-67.52220000
11.95999993	-63.03598000
11.99999993	-72.02368000
12.03999993	-76.50990000
12.07999993	-72.02368000
12.11999993	-63.03598000
12.15999993	-54.04828000
12.19999993	-54.04828000
12.23999993	-49.56206000
12.27999993	-40.57436000
12.31999993	-36.08813000
12.35999992	-36.08813000
12.39999992	-36.08813000
12.43999992	-36.08813000
12.47999992	-31.58666000
12.51999992	-27.10044000
12.55999992	-22.59896000
12.59999992	-22.59896000
12.63999992	-18.11273000
12.67999992	-9.12503300
12.71999992	-0.15259250
12.75999992	8.81984900
12.79999992	17.80755000
12.83999992	31.28147000
12.87999992	44.75539000
12.91999992	62.73079000
12.95999992	71.71850000
12.99999992	80.70620000
13.03999992	85.19241000
13.07999992	89.67863000
13.11999992	85.19241000
13.15999992	80.70620000
13.19999992	76.20471000
13.23999992	71.71850000
13.27999992	62.73079000
13.31999992	58.24457000
13.35999992	53.74309000
13.39999992	44.75539000
13.43999992	35.78295000
13.47999992	31.28147000
13.51999992	26.79525000
13.55999992	17.80755000
13.59999992	13.32133000
13.63999992	-0.15259250
13.67999992	-9.12503300
13.71999992	-22.59896000
13.75999992	-36.08813000
13.79999992	-49.56206000
13.83999992	-63.03598000
13.87999992	-72.02368000
13.91999992	-76.50990000
13.95999992	-76.50990000
13.99999991	-72.02368000
14.03999991	-72.02368000
14.07999991	-63.03598000
14.11999991	-58.54976000
14.15999991	-54.04828000
14.19999991	-45.06058000
14.23999991	-45.06058000
14.27999991	-40.57436000
14.31999991	-36.08813000
14.35999991	-36.08813000
14.39999991	-36.08813000
14.43999991	-36.08813000
14.47999991	-27.10044000
14.51999991	-22.59896000
14.55999991	-18.11273000
14.59999991	-13.62651000
14.63999991	-4.63881300
14.67999991	4.33362800
14.71999991	13.32133000
14.75999991	22.29377000
14.79999991	35.78295000
14.83999991	49.25687000
14.87999991	62.73079000
14.91999991	71.71850000
14.95999991	85.19241000
14.99999991	85.19241000
15.03999991	85.19241000
15.07999991	85.19241000
15.11999991	76.20471000
15.15999991	71.71850000
15.19999991	67.21701000
15.23999991	62.73079000
15.27999991	58.24457000
15.31999991	53.74309000
15.35999991	44.75539000
15.39999991	26.79525000
15.43999991	26.79525000
15.47999991	31.28147000
15.51999991	22.29377000
15.55999991	4.33362800
15.59999991	-4.63881300
15.63999990	-13.62651000
15.67999990	-22.59896000
15.71999990	-40.57436000
15.75999990	-54.04828000
15.79999990	-63.03598000
15.83999990	-72.02368000
15.87999990	-76.50990000
15.91999990	-76.50990000
15.95999990	-72.02368000
15.99999990	-67.52220000
16.03999990	-63.03598000
16.07999990	-58.54976000
16.11999990	-49.56206000
16.15999990	-45.06058000
16.19999990	-40.57436000
16.23999990	-36.08813000
16.27999990	-36.08813000
16.31999990	-36.08813000
16.35999990	-31.58666000
16.39999990	-31.58666000
16.43999990	-27.10044000
16.47999990	-27.10044000
16.51999990	-18.11273000
16.55999990	-18.11273000
16.59999990	-4.63881300
16.63999990	-0.15259250
16.67999990	13.32133000
16.71999990	22.29377000
16.75999990	35.78295000
16.79999990	49.25687000
16.83999990	62.73079000
16.87999990	76.20471000
16.91999990	85.19241000
16.95999990	85.19241000
16.99999990	89.67863000
17.03999990	85.19241000
17.07999990	80.70620000
17.11999990	71.71850000
17.15999990	67.21701000
17.19999990	67.21701000
17.23999990	58.24457000
17.27999989	49.25687000
17.31999989	40.26917000
17.35999989	35.78295000
17.39999989	31.28147000
17.43999989	22.29377000
17.47999989	13.32133000
17.51999989	8.81984900
17.55999989	-0.15259250
17.59999989	-13.62651000
17.63999989	-27.10044000
17.67999989	-40.57436000
17.71999989	-54.04828000
17.75999989	-63.03598000
17.79999989	-72.02368000
17.83999989	-76.50990000
17.87999989	-72.02368000
17.91999989	-72.02368000
17.95999989	-67.52220000
17.99999989	-63.03598000
18.03999989	-54.04828000
18.07999989	-49.56206000
18.11999989	-45.06058000
18.15999989	-40.57436000
18.19999989	-40.57436000
18.23999989	-36.08813000
18.27999989	-36.08813000
18.31999989	-31.58666000
18.35999989	-31.58666000
18.39999989	-27.10044000
18.43999989	-22.59896000
18.47999989	-18.11273000
18.51999989	-13.62651000
18.55999989	-4.63881300
18.59999989	4.33362800
18.63999989	13.32133000
18.67999989	22.29377000
18.71999989	35.78295000
18.75999989	49.25687000
18.79999989	62.73079000
18.83999989	76.20471000
18.87999989	85.19241000
18.91999989	85.19241000
18.95999988	85.19241000
18.99999988	85.19241000
19.03999988	76.20471000
19.07999988	76.20471000
19.11999988	67.21701000
19.15999988	67.21701000
19.19999988	53.74309000
19.23999988	49.25687000
19.27999988	44.75539000
19.31999988	35.78295000
19.35999988	31.28147000
19.39999988	22.29377000
19.43999988	17.80755000
19.47999988	8.81984900
19.51999988	-0.15259250
19.55999988	-13.62651000
19.59999988	-27.10044000
19.63999988	-40.57436000
19.67999988	-54.04828000
19.71999988	-63.03598000
19.75999988	-72.02368000
19.79999988	-72.02368000
19.83999988	-72.02368000
19.87999988	-72.02368000
19.91999988	-63.03598000
19.95999988	-58.54976000
19.99999988	-54.04828000
20.03999988	-49.56206000
20.07999988	-45.06058000
20.11999988	-40.57436000
20.15999988	-36.08813000
20.19999988	-36.08813000
20.23999988	-40.57436000
20.27999988	-36.08813000
20.31999988	-31.58666000
20.35999988	-27.10044000
20.39999988	-22.59896000
20.43999988	-18.11273000
20.47999988	-13.62651000
20.51999988	-4.63881300
20.55999988	4.33362800
20.59999987	13.32133000
20.63999987	26.79525000
20.67999987	35.78295000
20.71999987	53.74309000
20.75999987	67.21701000
20.79999987	76.20471000
20.83999987	85.19241000
20.87999987	85.19241000
20.91999987	85.19241000
20.95999987	85.19241000
20.99999987	80.70620000
21.03999987	71.71850000
21.07999987	67.21701000
21.11999987	62.73079000
21.15999987	58.24457000
21.19999987	49.25687000
21.23999987	40.26917000
21.27999987	35.78295000
21.31999987	26.79525000
21.35999987	22.29377000
21.39999987	13.32133000
21.43999987	4.33362800
21.47999987	-0.15259250
21.51999987	-18.11273000
21.55999987	-27.10044000
21.59999987	-40.57436000
21.63999987	-54.04828000
21.67999987	-63.03598000
21.71999987	-72.02368000
21.75999987	-72.02368000
21.79999987	-67.52220000
21.83999987	-67.52220000
21.87999987	-72.02368000
21.91999987	-63.03598000
21.95999987	-54.04828000
21.99999987	-45.06058000
22.03999987	-45.06058000
22.07999987	-40.57436000
22.11999987	-36.08813000
22.15999987	-36.08813000
22.19999987	-36.08813000
22.23999986	-31.58666000
22.27999986	-31.58666000
22.31999986	-27.10044000
22.35999986	-22.59896000
22.39999986	-18.11273000
22.43999986	-9.12503300
22.47999986	-0.15259250
22.51999986	4.33362800
22.55999986	13.32133000
22.59999986	26.79525000
22.63999986	35.78295000
22.67999986	53.74309000
22.71999986	71.71850000
22.75999986	80.70620000
22.79999986	85.19241000
22.83999986	89.67863000
22.87999986	85.19241000
22.91999986	85.19241000
22.95999986	76.20471000
22.99999986	71.71850000
23.03999986	67.21701000
23.07999986	62.73079000
23.11999986	53.74309000
23.15999986	49.25687000
23.19999986	40.26917000
23.23999986	35.78295000
23.27999986	31.28147000
23.31999986	17.80755000
23.35999986	13.32133000
23.39999986	4.33362800
23.43999986	-4.63881300
23.47999986	-18.11273000
23.51999986	-31.58666000
23.55999986	-45.06058000
23.59999986	-58.54976000
23.63999986	-67.52220000
23.67999986	-72.02368000
23.71999986	-72.02368000
23.75999986	-72.02368000
23.79999986	-67.52220000
23.83999986	-63.03598000
23.87999985	-58.54976000
23.91999985	-54.04828000
23.95999985	-45.06058000
23.99999985	-40.57436000
24.03999985	-36.08813000
24.07999985	-36.08813000
24.11999985	-36.08813000
24.15999985	-36.08813000
24.19999985	-36.08813000
24.23999985	-31.58666000
24.27999985	-27.10044000
24.31999985	-22.59896000
24.35999985	-18.11273000
24.39999985	-13.62651000
24.43999985	-0.15259250
24.47999985	4.33362800
24.51999985	17.80755000
24.55999985	26.79525000
24.59999985	40.26917000
24.63999985	53.74309000
24.67999985	67.21701000
24.71999985	80.70620000
24.75999985	85.19241000
24.79999985	89.67863000
24.83999985	85.19241000
24.87999985	80.70620000
24.91999985	76.20471000
24.95999985	71.71850000
24.99999985	67.21701000
25.03999985	62.73079000
25.07999985	53.74309000
25.11999985	49.25687000
25.15999985	44.75539000
25.19999985	35.78295000
25.23999985	17.80755000
25.27999985	17.80755000
25.31999985	17.80755000
25.35999985	8.81984900
25.39999985	-9.12503300
25.43999985	-18.11273000
25.47999985	-31.58666000
25.51999984	-45.06058000
25.55999984	-58.54976000
25.59999984	-67.52220000
25.63999984	-72.02368000
25.67999984	-72.02368000
25.71999984	-72.02368000
25.75999984	-72.02368000
25.79999984	-63.03598000
25.83999984	-58.54976000
25.87999984	-54.04828000
25.91999984	-49.56206000
25.95999984	-40.57436000
25.99999984	-40.57436000
26.03999984	-36.08813000
26.07999984	-36.08813000
26.11999984	-36.08813000
26.15999984	-31.58666000
26.19999984	-31.58666000
26.23999984	-27.10044000
26.27999984	-22.59896000
26.31999984	-18.11273000
26.35999984	-9.12503300
26.39999984	-0.15259250
26.43999984	8.81984900
26.47999984	17.80755000
26.51999984	35.78295000
26.55999984	44.75539000
26.59999984	62.73079000
26.63999984	71.71850000
26.67999984	80.70620000
26.71999984	89.67863000
26.75999984	89.67863000
26.79999984	85.19241000
26.83999984	80.70620000
26.87999984	76.20471000
26.91999984	71.71850000
26.95999984	62.73079000
26.99999984	58.24457000
27.03999984	53.74309000
27.07999984	44.75539000
27.11999984	40.26917000
27.15999983	31.28147000
27.19999983	22.29377000
27.23999983	17.80755000
27.27999983	13.32133000
27.31999983	-0.15259250
27.35999983	-9.12503300
27.39999983	-22.59896000
27.43999983	-36.08813000
27.47999983	-49.56206000
27.51999983	-58.54976000
27.55999983	-72.02368000
27.59999983	-72.02368000
27.63999983	-72.02368000
27.67999983	-72.02368000
27.71999983	-63.03598000
27.75999983	-58.54976000
27.79999983	-54.04828000
27.83999983	-54.04828000
27.87999983	-58.54976000
27.91999983	-67.52220000
27.95999983	-63.03598000
27.99999983	-58.54976000
28.03999983	-45.06058000
28.07999983	-31.58666000
28.11999983	-18.11273000
28.15999983	-0.15259250
28.19999983	13.32133000
28.23999983	22.29377000
28.27999983	17.80755000
28.31999983	13.32133000
28.35999983	13.32133000
28.39999983	13.32133000
28.43999983	13.32133000
28.47999983	17.80755000
28.51999983	31.28147000
28.55999983	44.75539000
28.59999983	62.73079000
28.63999983	71.71850000
28.67999983	71.71850000
28.71999983	71.71850000
28.75999983	71.71850000
28.79999982	71.71850000
28.83999982	71.71850000
28.87999982	67.21701000
28.91999982	62.73079000
28.95999982	53.74309000
28.99999982	53.74309000
29.03999982	44.75539000
29.07999982	40.26917000
29.11999982	35.78295000
29.15999982	31.28147000
29.19999982	26.79525000
29.23999982	22.29377000
29.27999982	8.81984900
29.31999982	-0.15259250
29.35999982	-18.11273000
29.39999982	-36.08813000
29.43999982	-58.54976000
29.47999982	-72.02368000
29.51999982	-81.01138000
29.55999982	-85.49760000
29.59999982	-85.49760000
29.63999982	-76.50990000
29.67999982	-67.52220000
29.71999982	-58.54976000
29.75999982	-54.04828000
29.79999982	-45.06058000
29.83999982	-45.06058000
29.87999982	-40.57436000
29.91999982	-40.57436000
29.95999982	-36.08813000
29.99999982	-36.08813000
30.03999982	-27.10044000
30.07999982	-31.58666000
30.11999982	-22.59896000
30.15999982	-18.11273000
30.19999982	-9.12503300
30.23999982	-4.63881300
30.27999982	-0.15259250
30.31999982	4.33362800
30.35999982	8.81984900
30.39999982	22.29377000
30.43999982	35.78295000
30.47999981	49.25687000
30.51999981	62.73079000
30.55999981	71.71850000
30.59999981	80.70620000
30.63999981	85.19241000
30.67999981	80.70620000
30.71999981	80.70620000
30.75999981	76.20471000
30.79999981	71.71850000
30.83999981	71.71850000
30.87999981	62.73079000
30.91999981	58.24457000
30.95999981	49.25687000
30.99999981	44.75539000
31.03999981	35.78295000
31.07999981	31.28147000
31.11999981	22.29377000
31.15999981	17.80755000
31.19999981	8.81984900
31.23999981	-0.15259250
31.27999981	-18.11273000
31.31999981	-27.10044000
31.35999981	-45.06058000
31.39999981	-58.54976000
31.43999981	-72.02368000
31.47999981	-76.50990000
31.51999981	-72.02368000
31.55999981	-72.02368000
31.59999981	-76.50990000
31.63999981	-72.02368000
31.67999981	-58.54976000
31.71999981	-49.56206000
