Time,Channel A
(us),(mV)

0.00000000,19.76379000
0.04000000,28.74844000
0.08000000,39.52757000
0.12000000,48.51222000
0.16000000,57.50298000
0.20000000,71.87719000
0.24000000,84.45692000
0.28000000,97.03055000
0.32000000,111.41090000
0.36000000,122.19000000
0.40000000,129.38020000
0.44000000,131.17470000
0.48000000,129.38020000
0.52000000,122.19000000
0.56000000,116.80040000
0.60000000,106.01520000
0.64000000,95.23605000
0.68000000,82.65633000
0.72000000,70.07660000
0.76000000,57.50298000
0.80000000,44.92325000
0.83999999,34.13800000
0.87999999,21.55827000
0.91999999,12.57363000
0.95999999,1.79448800
0.99999999,-8.98464900
1.03999999,-21.55827000
1.07999999,-34.13800000
1.11999999,-46.71774000
1.15999999,-59.29746000
1.19999999,-73.67168000
1.23999999,-84.45692000
1.27999999,-91.64098000
1.31999999,-97.03055000
1.35999999,-97.03055000
1.39999999,-95.23605000
1.43999999,-86.25141000
1.47999999,-75.47227000
1.51999999,-64.68703000
1.55999999,-59.29746000
1.59999999,-55.70238000
1.63999999,-53.90789000
1.67999999,-53.90789000
1.71999999,-55.70238000
1.75999999,-57.50298000
1.79999999,-57.50298000
1.83999999,-59.29746000
1.87999999,-59.29746000
1.91999999,-59.29746000
1.95999999,-57.50298000
1.99999999,-52.10730000
2.03999999,-46.71774000
2.07999999,-39.52757000
2.11999999,-30.54292000
2.15999999,-23.35887000
2.19999999,-14.37422000
2.23999999,-14.37422000
2.27999999,-1.79448800
2.31999999,7.18405700
2.35999999,19.76379000
2.39999999,28.74844000
2.43999999,39.52757000
2.47999998,48.51222000
2.51999998,61.09195000
2.55999998,75.47227000
2.59999998,89.84650000
2.63999998,106.01520000
2.67999998,118.59490000
2.71999998,129.38020000
2.75999998,136.56420000
2.79999998,134.76970000
2.83999998,131.17470000
2.87999998,123.99060000
2.91999998,115.00600000
2.95999998,104.22070000
2.99999998,93.44157000
3.03999998,80.86184000
3.07999998,68.28211000
3.11999998,53.90789000
3.15999998,41.32816000
3.19999998,28.74844000
3.23999998,19.76379000
3.27999998,10.77914000
3.31999998,-1.79448800
3.35999998,-10.77914000
3.39999998,-23.35887000
3.43999998,-35.93859000
3.47999998,-50.31281000
3.51999998,-62.89254000
3.55999998,-75.47227000
3.59999998,-84.45692000
3.63999998,-93.44157000
3.67999998,-97.03055000
3.71999998,-95.23605000
3.75999998,-89.84650000
3.79999998,-82.65633000
3.83999998,-80.86184000
3.87999998,-77.26676000
3.91999998,-70.07660000
3.95999998,-64.68703000
3.99999998,-61.09195000
4.03999998,-61.09195000
4.07999998,-61.09195000
4.11999997,-59.29746000
4.15999997,-59.29746000
4.19999997,-59.29746000
4.23999997,-61.09195000
4.27999997,-57.50298000
4.31999997,-55.70238000
4.35999997,-50.31281000
4.39999997,-43.12265000
4.43999997,-35.93859000
4.47999997,-28.74844000
4.51999997,-21.55827000
4.55999997,-12.57363000
4.59999997,-5.38956800
4.63999997,1.79448800
4.67999997,10.77914000
4.71999997,21.55827000
4.75999997,28.74844000
4.79999997,39.52757000
4.83999997,48.51222000
4.87999997,59.29746000
4.91999997,71.87719000
4.95999997,84.45692000
4.99999997,98.83114000
5.03999997,111.41090000
5.07999997,120.39550000
5.11999997,127.57960000
5.15999997,129.38020000
5.19999997,127.57960000
5.23999997,120.39550000
5.27999997,113.20540000
5.31999997,102.42620000
5.35999997,89.84650000
5.39999997,79.06125000
5.43999997,66.48762000
5.47999997,53.90789000
5.51999997,43.12265000
5.55999997,30.54292000
5.59999997,19.76379000
5.63999997,10.77914000
5.67999997,0.00000000
5.71999997,-8.98464900
5.75999996,-21.55827000
5.79999996,-34.13800000
5.83999996,-48.51222000
5.87999996,-61.09195000
5.91999996,-73.67168000
5.95999996,-84.45692000
5.99999996,-91.64098000
6.03999996,-97.03055000
6.07999996,-97.03055000
6.11999996,-93.44157000
6.15999996,-88.04590000
6.19999996,-84.45692000
6.23999996,-73.67168000
6.27999996,-68.28211000
6.31999996,-62.89254000
6.35999996,-62.89254000
6.39999996,-59.29746000
6.43999996,-64.68703000
6.47999996,-64.68703000
6.51999996,-66.48762000
6.55999996,-64.68703000
6.59999996,-64.68703000
6.63999996,-59.29746000
6.67999996,-57.50298000
6.71999996,-52.10730000
6.75999996,-44.92325000
6.79999996,-37.73308000
6.83999996,-28.74844000
6.87999996,-21.55827000
6.91999996,-14.37422000
6.95999996,-5.38956800
6.99999996,0.00000000
7.03999996,7.18405700
7.07999996,16.16870000
7.11999996,26.95395000
7.15999996,39.52757000
7.19999996,41.32816000
7.23999996,44.92325000
7.27999996,70.07660000
7.31999996,86.25141000
7.35999996,93.44157000
7.39999996,104.22070000
7.43999995,115.00600000
7.47999995,129.38020000
7.51999995,132.97520000
7.55999995,127.57960000
7.59999995,122.19000000
7.63999995,118.59490000
7.67999995,113.20540000
7.71999995,107.81580000
7.75999995,100.62560000
7.79999995,91.64098000
7.83999995,77.26676000
7.87999995,57.50298000
7.91999995,34.13800000
7.95999995,8.98464900
7.99999995,-14.37422000
8.03999995,-32.34352000
8.07999995,-44.92325000
8.11999995,-53.90789000
8.15999995,-57.50298000
8.19999995,-59.29746000
8.23999995,-59.29746000
8.27999995,-64.68703000
8.31999995,-71.87719000
8.35999995,-77.26676000
8.39999995,-80.86184000
8.43999995,-82.65633000
8.47999995,-84.45692000
8.51999995,-80.86184000
8.55999995,-75.47227000
8.59999995,-68.28211000
8.63999995,-57.50298000
8.67999995,-57.50298000
8.71999995,-53.90789000
8.75999995,-50.31281000
8.79999995,-52.10730000
8.83999995,-57.50298000
8.87999995,-59.29746000
8.91999995,-62.89254000
8.95999995,-64.68703000
8.99999995,-68.28211000
9.03999995,-70.07660000
9.07999994,-64.68703000
9.11999994,-59.29746000
9.15999994,-50.31281000
9.19999994,-39.52757000
9.23999994,-25.15336000
9.27999994,-14.37422000
9.31999994,-3.58897700
9.35999994,5.38956800
9.39999994,14.37422000
9.43999994,21.55827000
9.47999994,28.74844000
9.51999994,35.93859000
9.55999994,43.12265000
9.59999994,52.10730000
9.63999994,64.68703000
9.67999994,79.06125000
9.71999994,93.44157000
9.75999994,107.81580000
9.79999994,118.59490000
9.83999994,127.57960000
9.87999994,129.38020000
9.91999994,123.99060000
9.95999994,118.59490000
9.99999994,107.81580000
10.03999994,98.83114000
10.07999994,88.04590000
10.11999994,77.26676000
10.15999994,68.28211000
10.19999994,57.50298000
10.23999994,48.51222000
10.27999994,37.73308000
10.31999994,28.74844000
10.35999994,19.76379000
10.39999994,8.98464900
10.43999994,-1.79448800
10.47999994,-14.37422000
10.51999994,-28.74844000
10.55999994,-43.12265000
10.59999994,-57.50298000
10.63999994,-71.87719000
10.67999994,-84.45692000
10.71999993,-93.44157000
10.75999993,-98.83114000
10.79999993,-100.62560000
10.83999993,-95.23605000
10.87999993,-91.64098000
10.91999993,-84.45692000
10.95999993,-79.06125000
10.99999993,-71.87719000
11.03999993,-68.28211000
11.07999993,-64.68703000
11.11999993,-64.68703000
11.15999993,-61.09195000
11.19999993,-61.09195000
11.23999993,-59.29746000
11.27999993,-59.29746000
11.31999993,-57.50298000
11.35999993,-55.70238000
11.39999993,-53.90789000
11.43999993,-50.31281000
11.47999993,-44.92325000
11.51999993,-39.52757000
11.55999993,-32.34352000
11.59999993,-25.15336000
11.63999993,-17.96930000
11.67999993,-8.98464900
11.71999993,-1.79448800
11.75999993,5.38956800
11.79999993,14.37422000
11.83999993,21.55827000
11.87999993,30.54292000
11.91999993,41.32816000
11.95999993,50.31281000
11.99999993,62.89254000
12.03999993,75.47227000
12.07999993,86.25141000
12.11999993,104.22070000
12.15999993,116.80040000
12.19999993,129.38020000
12.23999993,132.97520000
12.27999993,132.97520000
12.31999993,127.57960000
12.35999992,118.59490000
12.39999992,109.61030000
12.43999992,98.83114000
12.47999992,86.25141000
12.51999992,71.87719000
12.55999992,57.50298000
12.59999992,44.92325000
12.63999992,34.13800000
12.67999992,21.55827000
12.71999992,12.57363000
12.75999992,3.58897700
12.79999992,-7.18405700
12.83999992,-16.16870000
12.87999992,-28.74844000
12.91999992,-41.32816000
12.95999992,-55.70238000
12.99999992,-68.28211000
13.03999992,-80.86184000
13.07999992,-88.04590000
13.11999992,-95.23605000
13.15999992,-95.23605000
13.19999992,-93.44157000
13.23999992,-86.25141000
13.27999992,-79.06125000
13.31999992,-71.87719000
13.35999992,-66.48762000
13.39999992,-59.29746000
13.43999992,-57.50298000
13.47999992,-59.29746000
13.51999992,-62.89254000
13.55999992,-61.09195000
13.59999992,-61.09195000
13.63999992,-61.09195000
13.67999992,-62.89254000
13.71999992,-62.89254000
13.75999992,-59.29746000
13.79999992,-53.90789000
13.83999992,-48.51222000
13.87999992,-43.12265000
13.91999992,-34.13800000
13.95999992,-25.15336000
13.99999991,-16.16870000
14.03999991,-8.98464900
14.07999991,-5.38956800
14.11999991,5.38956800
14.15999991,14.37422000
14.19999991,23.35887000
14.23999991,34.13800000
14.27999991,43.12265000
14.31999991,53.90789000
14.35999991,64.68703000
14.39999991,77.26676000
14.43999991,93.44157000
14.47999991,107.81580000
14.51999991,120.39550000
14.55999991,129.38020000
14.59999991,132.97520000
14.63999991,132.97520000
14.67999991,127.57960000
14.71999991,120.39550000
14.75999991,111.41090000
14.79999991,100.62560000
14.83999991,88.04590000
14.87999991,75.47227000
14.91999991,62.89254000
14.95999991,50.31281000
14.99999991,37.73308000
15.03999991,26.95395000
15.07999991,16.16870000
15.11999991,7.18405700
15.15999991,-3.58897700
15.19999991,-12.57363000
15.23999991,-25.15336000
15.27999991,-37.73308000
15.31999991,-52.10730000
15.35999991,-66.48762000
15.39999991,-79.06125000
15.43999991,-86.25141000
15.47999991,-95.23605000
15.51999991,-93.44157000
15.55999991,-91.64098000
15.59999991,-86.25141000
15.63999990,-82.65633000
15.67999990,-75.47227000
15.71999990,-71.87719000
15.75999990,-66.48762000
15.79999990,-64.68703000
15.83999990,-64.68703000
15.87999990,-61.09195000
15.91999990,-61.09195000
15.95999990,-59.29746000
15.99999990,-61.09195000
16.03999990,-59.29746000
16.07999990,-59.29746000
16.11999990,-57.50298000
16.15999990,-53.90789000
16.19999990,-48.51222000
16.23999990,-41.32816000
16.27999990,-34.13800000
16.31999990,-26.95395000
16.35999990,-19.76379000
16.39999990,-12.57363000
16.43999990,-5.38956800
16.47999990,1.79448800
16.51999990,12.57363000
16.55999990,21.55827000
16.59999990,30.54292000
16.63999990,41.32816000
16.67999990,52.10730000
16.71999990,62.89254000
16.75999990,75.47227000
16.79999990,88.04590000
16.83999990,102.42620000
16.87999990,115.00600000
16.91999990,123.99060000
16.95999990,131.17470000
16.99999990,134.76970000
17.03999990,125.78510000
17.07999990,111.41090000
17.11999990,115.00600000
17.15999990,109.61030000
17.19999990,93.44157000
17.23999990,77.26676000
17.27999989,62.89254000
17.31999989,53.90789000
17.35999989,43.12265000
17.39999989,30.54292000
17.43999989,19.76379000
17.47999989,10.77914000
17.51999989,0.00000000
17.55999989,-10.77914000
17.59999989,-23.35887000
17.63999989,-35.93859000
17.67999989,-50.31281000
17.71999989,-62.89254000
17.75999989,-73.67168000
17.79999989,-84.45692000
17.83999989,-93.44157000
17.87999989,-97.03055000
17.91999989,-97.03055000
17.95999989,-93.44157000
17.99999989,-89.84650000
18.03999989,-86.25141000
18.07999989,-79.06125000
18.11999989,-73.67168000
18.15999989,-66.48762000
18.19999989,-64.68703000
18.23999989,-57.50298000
18.27999989,-57.50298000
18.31999989,-59.29746000
18.35999989,-57.50298000
18.39999989,-59.29746000
18.43999989,-61.09195000
18.47999989,-59.29746000
18.51999989,-55.70238000
18.55999989,-52.10730000
18.59999989,-46.71774000
18.63999989,-37.73308000
18.67999989,-30.54292000
18.71999989,-23.35887000
18.75999989,-17.96930000
18.79999989,-8.98464900
18.83999989,0.00000000
18.87999989,7.18405700
18.91999989,16.16870000
18.95999988,26.95395000
18.99999988,35.93859000
19.03999988,46.71774000
19.07999988,55.70238000
19.11999988,68.28211000
19.15999988,80.86184000
19.19999988,95.23605000
19.23999988,109.61030000
19.27999988,118.59490000
19.31999988,127.57960000
19.35999988,129.38020000
19.39999988,127.57960000
19.43999988,122.19000000
19.47999988,113.20540000
19.51999988,104.22070000
19.55999988,93.44157000
19.59999988,80.86184000
19.63999988,68.28211000
19.67999988,55.70238000
19.71999988,44.92325000
19.75999988,32.34352000
19.79999988,21.55827000
19.83999988,14.37422000
19.87999988,3.58897700
19.91999988,-7.18405700
19.95999988,-17.96930000
19.99999988,-30.54292000
20.03999988,-44.92325000
20.07999988,-57.50298000
20.11999988,-71.87719000
20.15999988,-82.65633000
20.19999988,-91.64098000
20.23999988,-95.23605000
20.27999988,-98.83114000
20.31999988,-86.25141000
20.35999988,-79.06125000
20.39999988,-68.28211000
20.43999988,-68.28211000
20.47999988,-71.87719000
20.51999988,-70.07660000
20.55999988,-70.07660000
20.59999987,-68.28211000
20.63999987,-68.28211000
20.67999987,-66.48762000
20.71999987,-66.48762000
20.75999987,-66.48762000
20.79999987,-64.68703000
20.83999987,-62.89254000
20.87999987,-57.50298000
20.91999987,-52.10730000
20.95999987,-44.92325000
20.99999987,-35.93859000
21.03999987,-28.74844000
21.07999987,-21.55827000
21.11999987,-14.37422000
21.15999987,-8.98464900
21.19999987,-1.79448800
21.23999987,5.38956800
21.27999987,14.37422000
21.31999987,23.35887000
21.35999987,32.34352000
21.39999987,43.12265000
21.43999987,50.31281000
21.47999987,62.89254000
21.51999987,75.47227000
21.55999987,89.84650000
21.59999987,100.62560000
21.63999987,113.20540000
21.67999987,122.19000000
21.71999987,127.57960000
21.75999987,127.57960000
21.79999987,122.19000000
21.83999987,116.80040000
21.87999987,106.01520000
21.91999987,93.44157000
21.95999987,86.25141000
21.99999987,75.47227000
22.03999987,64.68703000
22.07999987,53.90789000
22.11999987,37.73308000
22.15999987,28.74844000
22.19999987,17.96930000
22.23999986,8.98464900
22.27999986,-1.79448800
22.31999986,-12.57363000
22.35999986,-25.15336000
22.39999986,-37.73308000
22.43999986,-52.10730000
22.47999986,-64.68703000
22.51999986,-79.06125000
22.55999986,-88.04590000
22.59999986,-93.44157000
22.63999986,-97.03055000
22.67999986,-93.44157000
22.71999986,-88.04590000
22.75999986,-79.06125000
22.79999986,-70.07660000
22.83999986,-64.68703000
22.87999986,-59.29746000
22.91999986,-57.50298000
22.95999986,-57.50298000
22.99999986,-57.50298000
23.03999986,-57.50298000
23.07999986,-57.50298000
23.11999986,-59.29746000
23.15999986,-59.29746000
23.19999986,-57.50298000
23.23999986,-52.10730000
23.27999986,-52.10730000
23.31999986,-50.31281000
23.35999986,-43.12265000
23.39999986,-34.13800000
23.43999986,-25.15336000
23.47999986,-17.96930000
23.51999986,-10.77914000
23.55999986,-3.58897700
23.59999986,3.58897700
23.63999986,12.57363000
23.67999986,21.55827000
23.71999986,30.54292000
23.75999986,43.12265000
23.79999986,53.90789000
23.83999986,66.48762000
23.87999985,79.06125000
23.91999985,95.23605000
23.95999985,109.61030000
23.99999985,125.78510000
24.03999985,132.97520000
24.07999985,136.56420000
24.11999985,134.76970000
24.15999985,129.38020000
24.19999985,122.19000000
24.23999985,111.41090000
24.27999985,100.62560000
24.31999985,88.04590000
24.35999985,75.47227000
24.39999985,62.89254000
24.43999985,50.31281000
24.47999985,35.93859000
24.51999985,26.95395000
24.55999985,16.16870000
24.59999985,5.38956800
24.63999985,-5.38956800
24.67999985,-14.37422000
24.71999985,-28.74844000
24.75999985,-41.32816000
24.79999985,-55.70238000
24.83999985,-66.48762000
24.87999985,-79.06125000
24.91999985,-86.25141000
24.95999985,-88.04590000
24.99999985,-88.04590000
25.03999985,-86.25141000
25.07999985,-80.86184000
25.11999985,-75.47227000
25.15999985,-70.07660000
25.19999985,-66.48762000
25.23999985,-62.89254000
25.27999985,-59.29746000
25.31999985,-57.50298000
25.35999985,-57.50298000
25.39999985,-57.50298000
25.43999985,-57.50298000
25.47999985,-57.50298000
25.51999984,-57.50298000
25.55999984,-57.50298000
25.59999984,-52.10730000
25.63999984,-48.51222000
25.67999984,-43.12265000
25.71999984,-35.93859000
25.75999984,-30.54292000
25.79999984,-21.55827000
25.83999984,-14.37422000
25.87999984,-7.18405700
25.91999984,0.00000000
25.95999984,7.18405700
25.99999984,17.96930000
26.03999984,28.74844000
26.07999984,37.73308000
26.11999984,48.51222000
26.15999984,59.29746000
26.19999984,71.87719000
26.23999984,86.25141000
26.27999984,98.83114000
26.31999984,113.20540000
26.35999984,122.19000000
26.39999984,131.17470000
26.43999984,134.76970000
26.47999984,132.97520000
26.51999984,127.57960000
26.55999984,118.59490000
26.59999984,107.81580000
26.63999984,97.03055000
26.67999984,84.45692000
26.71999984,71.87719000
26.75999984,59.29746000
26.79999984,50.31281000
26.83999984,37.73308000
26.87999984,14.37422000
26.91999984,12.57363000
26.95999984,12.57363000
26.99999984,0.00000000
27.03999984,-17.96930000
27.07999984,-32.34352000
27.11999984,-43.12265000
27.15999983,-52.10730000
27.19999983,-70.07660000
27.23999983,-82.65633000
27.27999983,-88.04590000
27.31999983,-93.44157000
27.35999983,-97.03055000
27.39999983,-93.44157000
27.43999983,-88.04590000
27.47999983,-86.25141000
27.51999983,-79.06125000
27.55999983,-71.87719000
27.59999983,-64.68703000
27.63999983,-62.89254000
27.67999983,-59.29746000
27.71999983,-57.50298000
27.75999983,-57.50298000
27.79999983,-59.29746000
27.83999983,-61.09195000
27.87999983,-57.50298000
27.91999983,-57.50298000
27.95999983,-55.70238000
27.99999983,-50.31281000
28.03999983,-44.92325000
28.07999983,-37.73308000
28.11999983,-32.34352000
28.15999983,-23.35887000
28.19999983,-14.37422000
28.23999983,-10.77914000
28.27999983,0.00000000
28.31999983,8.98464900
28.35999983,16.16870000
28.39999983,25.15336000
28.43999983,35.93859000
28.47999983,48.51222000
28.51999983,57.50298000
28.55999983,68.28211000
28.59999983,80.86184000
28.63999983,97.03055000
28.67999983,111.41090000
28.71999983,120.39550000
28.75999983,129.38020000
28.79999982,131.17470000
28.83999982,129.38020000
28.87999982,123.99060000
28.91999982,116.80040000
28.95999982,106.01520000
28.99999982,95.23605000
29.03999982,82.65633000
29.07999982,71.87719000
29.11999982,57.50298000
29.15999982,48.51222000
29.19999982,35.93859000
29.23999982,25.15336000
29.27999982,16.16870000
29.31999982,1.79448800
29.35999982,-5.38956800
29.39999982,-14.37422000
29.43999982,-30.54292000
29.47999982,-43.12265000
29.51999982,-57.50298000
29.55999982,-70.07660000
29.59999982,-80.86184000
29.63999982,-91.64098000
29.67999982,-95.23605000
29.71999982,-97.03055000
29.75999982,-97.03055000
29.79999982,-93.44157000
29.83999982,-86.25141000
29.87999982,-75.47227000
29.91999982,-70.07660000
29.95999982,-64.68703000
29.99999982,-61.09195000
30.03999982,-61.09195000
30.07999982,-59.29746000
30.11999982,-59.29746000
30.15999982,-61.09195000
30.19999982,-61.09195000
30.23999982,-61.09195000
30.27999982,-61.09195000
30.31999982,-57.50298000
30.35999982,-53.90789000
30.39999982,-50.31281000
30.43999982,-43.12265000
30.47999981,-35.93859000
30.51999981,-26.95395000
30.55999981,-19.76379000
30.59999981,-12.57363000
30.63999981,-3.58897700
30.67999981,5.38956800
30.71999981,14.37422000
30.75999981,23.35887000
30.79999981,32.34352000
30.83999981,43.12265000
30.87999981,52.10730000
30.91999981,64.68703000
30.95999981,75.47227000
30.99999981,89.84650000
31.03999981,104.22070000
31.07999981,116.80040000
31.11999981,125.78510000
31.15999981,129.38020000
31.19999981,129.38020000
31.23999981,127.57960000
31.27999981,122.19000000
31.31999981,118.59490000
31.35999981,111.41090000
31.39999981,107.81580000
31.43999981,100.62560000
31.47999981,79.06125000
31.51999981,48.51222000
