Time	Channel A
(us)	(mV)

0.00000000	-53.90789000
0.04000000	-62.89254000
0.08000000	-66.48762000
0.12000000	-73.67168000
0.16000000	-89.84650000
0.20000000	-98.83114000
0.24000000	-93.44157000
0.28000000	-79.06125000
0.32000000	-77.26676000
0.36000000	-80.86184000
0.40000000	-80.86184000
0.44000000	-71.87719000
0.48000000	-61.09195000
0.52000000	-53.90789000
0.56000000	-50.31281000
0.60000000	-43.12265000
0.64000000	-35.93859000
0.68000000	-26.95395000
0.72000000	-17.96930000
0.76000000	-7.18405700
0.80000000	3.58897700
0.83999999	21.55827000
0.87999999	43.12265000
0.91999999	57.50298000
0.95999999	71.87719000
0.99999999	80.86184000
1.03999999	95.23605000
1.07999999	109.61030000
1.11999999	125.78510000
1.15999999	134.76970000
1.19999999	138.36480000
1.23999999	141.95990000
1.27999999	134.76970000
1.31999999	127.57960000
1.35999999	113.20540000
1.39999999	109.61030000
1.43999999	106.01520000
1.47999999	102.42620000
1.51999999	95.23605000
1.55999999	88.04590000
1.59999999	79.06125000
1.63999999	71.87719000
1.67999999	62.89254000
1.71999999	53.90789000
1.75999999	43.12265000
1.79999999	28.74844000
1.83999999	12.57363000
1.87999999	-7.18405700
1.91999999	-28.74844000
1.95999999	-52.10730000
1.99999999	-73.67168000
2.03999999	-91.64098000
2.07999999	-106.01520000
2.11999999	-115.00600000
2.15999999	-116.80040000
2.19999999	-115.00600000
2.23999999	-97.03055000
2.27999999	-86.25141000
2.31999999	-66.48762000
2.35999999	-64.68703000
2.39999999	-59.29746000
2.43999999	-59.29746000
2.47999998	-61.09195000
2.51999998	-64.68703000
2.55999998	-68.28211000
2.59999998	-70.07660000
2.63999998	-71.87719000
2.67999998	-75.47227000
2.71999998	-75.47227000
2.75999998	-75.47227000
2.79999998	-71.87719000
2.83999998	-68.28211000
2.87999998	-61.09195000
2.91999998	-53.90789000
2.95999998	-44.92325000
2.99999998	-39.52757000
3.03999998	-30.54292000
3.07999998	-28.74844000
3.11999998	-25.15336000
3.15999998	-17.96930000
3.19999998	-7.18405700
3.23999998	3.58897700
3.27999998	3.58897700
3.31999998	-1.79448800
3.35999998	21.55827000
3.39999998	62.89254000
3.43999998	88.04590000
3.47999998	115.00600000
3.51999998	143.75440000
3.55999998	183.28810000
3.59999998	∞
3.63999998	∞
3.67999998	176.09790000
3.71999998	147.34950000
3.75999998	127.57960000
3.79999998	111.41090000
3.83999998	93.44157000
3.87999998	77.26676000
3.91999998	70.07660000
3.95999998	75.47227000
3.99999998	77.26676000
4.03999998	64.68703000
4.07999998	50.31281000
4.11999997	41.32816000
4.15999997	35.93859000
4.19999997	23.35887000
4.23999997	5.38956800
4.27999997	-14.37422000
4.31999997	-32.34352000
4.35999997	-52.10730000
4.39999997	-64.68703000
4.43999997	-77.26676000
4.47999997	-88.04590000
4.51999997	-97.03055000
4.55999997	-102.42620000
4.59999997	-97.03055000
4.63999997	-86.25141000
4.67999997	-88.04590000
4.71999997	-73.67168000
4.75999997	-71.87719000
4.79999997	-64.68703000
4.83999997	-71.87719000
4.87999997	-75.47227000
4.91999997	-80.86184000
4.95999997	-80.86184000
4.99999997	-79.06125000
5.03999997	-77.26676000
5.07999997	-77.26676000
5.11999997	-73.67168000
5.15999997	-73.67168000
5.19999997	-68.28211000
5.23999997	-64.68703000
5.27999997	-61.09195000
5.31999997	-55.70238000
5.35999997	-43.12265000
5.39999997	-32.34352000
5.43999997	-25.15336000
5.47999997	-17.96930000
5.51999997	-10.77914000
5.55999997	-3.58897700
5.59999997	3.58897700
5.63999997	12.57363000
5.67999997	21.55827000
5.71999997	32.34352000
5.75999996	44.92325000
5.79999996	57.50298000
5.83999996	73.67168000
5.87999996	91.64098000
5.91999996	111.41090000
5.95999996	127.57960000
5.99999996	141.95990000
6.03999996	147.34950000
6.07999996	147.34950000
6.11999996	136.56420000
6.15999996	127.57960000
6.19999996	116.80040000
6.23999996	111.41090000
6.27999996	107.81580000
6.31999996	100.62560000
6.35999996	91.64098000
6.39999996	84.45692000
6.43999996	75.47227000
6.47999996	64.68703000
6.51999996	53.90789000
6.55999996	43.12265000
6.59999996	28.74844000
6.63999996	14.37422000
6.67999996	-5.38956800
6.71999996	-26.95395000
6.75999996	-46.71774000
6.79999996	-66.48762000
6.83999996	-84.45692000
6.87999996	-98.83114000
6.91999996	-109.61030000
6.95999996	-113.20540000
6.99999996	-113.20540000
7.03999996	-102.42620000
7.07999996	-91.64098000
7.11999996	-73.67168000
7.15999996	-64.68703000
7.19999996	-57.50298000
7.23999996	-57.50298000
7.27999996	-59.29746000
7.31999996	-62.89254000
7.35999996	-66.48762000
7.39999996	-68.28211000
7.43999995	-71.87719000
7.47999995	-71.87719000
7.51999995	-73.67168000
7.55999995	-73.67168000
7.59999995	-73.67168000
7.63999995	-71.87719000
7.67999995	-64.68703000
7.71999995	-59.29746000
7.75999995	-50.31281000
7.79999995	-43.12265000
7.83999995	-32.34352000
7.87999995	-39.52757000
7.91999995	-30.54292000
7.95999995	-10.77914000
7.99999995	0.00000000
8.03999995	5.38956800
8.07999995	19.76379000
8.11999995	32.34352000
8.15999995	53.90789000
8.19999995	66.48762000
8.23999995	80.86184000
8.27999995	98.83114000
8.31999995	115.00600000
8.35999995	129.38020000
8.39999995	141.95990000
8.43999995	149.14400000
8.47999995	147.34950000
8.51999995	138.36480000
8.55999995	127.57960000
8.59999995	116.80040000
8.63999995	109.61030000
8.67999995	104.22070000
8.71999995	98.83114000
8.75999995	91.64098000
8.79999995	84.45692000
8.83999995	79.06125000
8.87999995	68.28211000
8.91999995	57.50298000
8.95999995	44.92325000
8.99999995	30.54292000
9.03999995	16.16870000
9.07999994	0.00000000
9.11999994	-17.96930000
9.15999994	-37.73308000
9.19999994	-57.50298000
9.23999994	-73.67168000
9.27999994	-89.84650000
9.31999994	-102.42620000
9.35999994	-111.41090000
9.39999994	-111.41090000
9.43999994	-111.41090000
9.47999994	-102.42620000
9.51999994	-88.04590000
9.55999994	-75.47227000
9.59999994	-62.89254000
9.63999994	-57.50298000
9.67999994	-57.50298000
9.71999994	-59.29746000
9.75999994	-64.68703000
9.79999994	-66.48762000
9.83999994	-68.28211000
9.87999994	-70.07660000
9.91999994	-71.87719000
9.95999994	-71.87719000
9.99999994	-70.07660000
10.03999994	-68.28211000
10.07999994	-64.68703000
10.11999994	-57.50298000
10.15999994	-50.31281000
10.19999994	-39.52757000
10.23999994	-34.13800000
10.27999994	-26.95395000
10.31999994	-21.55827000
10.35999994	-16.16870000
10.39999994	-8.98464900
10.43999994	1.79448800
10.47999994	14.37422000
10.51999994	28.74844000
10.55999994	44.92325000
10.59999994	59.29746000
10.63999994	75.47227000
10.67999994	93.44157000
10.71999993	109.61030000
10.75999993	129.38020000
10.79999993	145.54890000
10.83999993	152.73900000
10.87999993	152.73900000
10.91999993	143.75440000
10.95999993	131.17470000
10.99999993	118.59490000
11.03999993	113.20540000
11.07999993	106.01520000
11.11999993	100.62560000
11.15999993	91.64098000
11.19999993	84.45692000
11.23999993	77.26676000
11.27999993	66.48762000
11.31999993	55.70238000
11.35999993	43.12265000
11.39999993	30.54292000
11.43999993	16.16870000
11.47999993	0.00000000
11.51999993	-17.96930000
11.55999993	-37.73308000
11.59999993	-57.50298000
11.63999993	-75.47227000
11.67999993	-89.84650000
11.71999993	-102.42620000
11.75999993	-109.61030000
11.79999993	-111.41090000
11.83999993	-107.81580000
11.87999993	-97.03055000
11.91999993	-86.25141000
11.95999993	-79.06125000
11.99999993	-71.87719000
12.03999993	-68.28211000
12.07999993	-66.48762000
12.11999993	-68.28211000
12.15999993	-70.07660000
12.19999993	-71.87719000
12.23999993	-73.67168000
12.27999993	-75.47227000
12.31999993	-75.47227000
12.35999992	-75.47227000
12.39999992	-73.67168000
12.43999992	-71.87719000
12.47999992	-64.68703000
12.51999992	-57.50298000
12.55999992	-50.31281000
12.59999992	-41.32816000
12.63999992	-35.93859000
12.67999992	-26.95395000
12.71999992	-23.35887000
12.75999992	-19.76379000
12.79999992	-7.18405700
12.83999992	3.58897700
12.87999992	17.96930000
12.91999992	30.54292000
12.95999992	43.12265000
12.99999992	55.70238000
13.03999992	71.87719000
13.07999992	88.04590000
13.11999992	106.01520000
13.15999992	118.59490000
13.19999992	134.76970000
13.23999992	143.75440000
13.27999992	150.94450000
13.31999992	143.75440000
13.35999992	134.76970000
13.39999992	122.19000000
13.43999992	115.00600000
13.47999992	107.81580000
13.51999992	102.42620000
13.55999992	93.44157000
13.59999992	86.25141000
13.63999992	77.26676000
13.67999992	68.28211000
13.71999992	55.70238000
13.75999992	44.92325000
13.79999992	32.34352000
13.83999992	17.96930000
13.87999992	1.79448800
13.91999992	-14.37422000
13.95999992	-34.13800000
13.99999991	-52.10730000
14.03999991	-70.07660000
14.07999991	-84.45692000
14.11999991	-98.83114000
14.15999991	-104.22070000
14.19999991	-107.81580000
14.23999991	-100.62560000
14.27999991	-97.03055000
14.31999991	-88.04590000
14.35999991	-80.86184000
14.39999991	-71.87719000
14.43999991	-68.28211000
14.47999991	-66.48762000
14.51999991	-71.87719000
14.55999991	-71.87719000
14.59999991	-73.67168000
14.63999991	-77.26676000
14.67999991	-79.06125000
14.71999991	-79.06125000
14.75999991	-79.06125000
14.79999991	-75.47227000
14.83999991	-71.87719000
14.87999991	-68.28211000
14.91999991	-61.09195000
14.95999991	-53.90789000
14.99999991	-44.92325000
15.03999991	-37.73308000
15.07999991	-32.34352000
15.11999991	-25.15336000
15.15999991	-19.76379000
15.19999991	-10.77914000
15.23999991	0.00000000
15.27999991	12.57363000
15.31999991	25.15336000
15.35999991	39.52757000
15.39999991	55.70238000
15.43999991	70.07660000
15.47999991	84.45692000
15.51999991	100.62560000
15.55999991	116.80040000
15.59999991	129.38020000
15.63999990	141.95990000
15.67999990	149.14400000
15.71999990	147.34950000
15.75999990	136.56420000
15.79999990	123.99060000
15.83999990	115.00600000
15.87999990	109.61030000
15.91999990	104.22070000
15.95999990	98.83114000
15.99999990	91.64098000
16.03999990	84.45692000
16.07999990	75.47227000
16.11999990	66.48762000
16.15999990	53.90789000
16.19999990	43.12265000
16.23999990	28.74844000
16.27999990	12.57363000
16.31999990	-3.58897700
16.35999990	-21.55827000
16.39999990	-43.12265000
16.43999990	-61.09195000
16.47999990	-79.06125000
16.51999990	-91.64098000
16.55999990	-104.22070000
16.59999990	-111.41090000
16.63999990	-111.41090000
16.67999990	-107.81580000
16.71999990	-97.03055000
16.75999990	-84.45692000
16.79999990	-73.67168000
16.83999990	-61.09195000
16.87999990	-59.29746000
16.91999990	-59.29746000
16.95999990	-61.09195000
16.99999990	-64.68703000
17.03999990	-66.48762000
17.07999990	-70.07660000
17.11999990	-71.87719000
17.15999990	-71.87719000
17.19999990	-71.87719000
17.23999990	-71.87719000
17.27999989	-68.28211000
17.31999989	-64.68703000
17.35999989	-59.29746000
17.39999989	-50.31281000
17.43999989	-43.12265000
17.47999989	-35.93859000
17.51999989	-30.54292000
17.55999989	-23.35887000
17.59999989	-16.16870000
17.63999989	-5.38956800
17.67999989	7.18405700
17.71999989	10.77914000
17.75999989	23.35887000
17.79999989	53.90789000
17.83999989	71.87719000
17.87999989	80.86184000
17.91999989	97.03055000
17.95999989	113.20540000
17.99999989	138.36480000
18.03999989	149.14400000
18.07999989	154.53350000
18.11999989	152.73900000
18.15999989	143.75440000
18.19999989	127.57960000
18.23999989	116.80040000
18.27999989	113.20540000
18.31999989	106.01520000
18.35999989	98.83114000
18.39999989	95.23605000
18.43999989	88.04590000
18.47999989	79.06125000
18.51999989	70.07660000
18.55999989	61.09195000
18.59999989	48.51222000
18.63999989	35.93859000
18.67999989	19.76379000
18.71999989	1.79448800
18.75999989	-17.96930000
18.79999989	-41.32816000
18.83999989	-62.89254000
18.87999989	-79.06125000
18.91999989	-93.44157000
18.95999988	-104.22070000
18.99999988	-107.81580000
19.03999988	-107.81580000
19.07999988	-100.62560000
19.11999988	-88.04590000
19.15999988	-73.67168000
19.19999988	-66.48762000
19.23999988	-61.09195000
19.27999988	-57.50298000
19.31999988	-59.29746000
19.35999988	-64.68703000
19.39999988	-66.48762000
19.43999988	-68.28211000
19.47999988	-71.87719000
19.51999988	-73.67168000
19.55999988	-75.47227000
19.59999988	-73.67168000
19.63999988	-71.87719000
19.67999988	-68.28211000
19.71999988	-62.89254000
19.75999988	-53.90789000
19.79999988	-43.12265000
19.83999988	-37.73308000
19.87999988	-30.54292000
19.91999988	-25.15336000
19.95999988	-17.96930000
19.99999988	-14.37422000
20.03999988	-5.38956800
20.07999988	5.38956800
20.11999988	17.96930000
20.15999988	32.34352000
20.19999988	48.51222000
20.23999988	64.68703000
20.27999988	79.06125000
20.31999988	97.03055000
20.35999988	115.00600000
20.39999988	129.38020000
20.43999988	141.95990000
20.47999988	149.14400000
20.51999988	152.73900000
20.55999988	141.95990000
20.59999987	129.38020000
20.63999987	116.80040000
20.67999987	113.20540000
20.71999987	107.81580000
20.75999987	100.62560000
20.79999987	97.03055000
20.83999987	91.64098000
20.87999987	84.45692000
20.91999987	77.26676000
20.95999987	66.48762000
20.99999987	53.90789000
21.03999987	39.52757000
21.07999987	25.15336000
21.11999987	7.18405700
21.15999987	-12.57363000
21.19999987	-35.93859000
21.23999987	-57.50298000
21.27999987	-73.67168000
21.31999987	-91.64098000
21.35999987	-104.22070000
21.39999987	-111.41090000
21.43999987	-115.00600000
21.47999987	-107.81580000
21.51999987	-100.62560000
21.55999987	-84.45692000
21.59999987	-73.67168000
21.63999987	-64.68703000
21.67999987	-61.09195000
21.71999987	-62.89254000
21.75999987	-64.68703000
21.79999987	-68.28211000
21.83999987	-71.87719000
21.87999987	-71.87719000
21.91999987	-71.87719000
21.95999987	-71.87719000
21.99999987	-68.28211000
22.03999987	-66.48762000
22.07999987	-64.68703000
22.11999987	-59.29746000
22.15999987	-53.90789000
22.19999987	-44.92325000
22.23999986	-41.32816000
22.27999986	-35.93859000
22.31999986	-30.54292000
22.35999986	-25.15336000
22.39999986	-21.55827000
22.43999986	-12.57363000
22.47999986	-3.58897700
22.51999986	10.77914000
22.55999986	25.15336000
22.59999986	37.73308000
22.63999986	57.50298000
22.67999986	75.47227000
22.71999986	97.03055000
22.75999986	115.00600000
22.79999986	129.38020000
22.83999986	143.75440000
22.87999986	150.94450000
22.91999986	152.73900000
22.95999986	145.54890000
22.99999986	129.38020000
23.03999986	118.59490000
23.07999986	111.41090000
23.11999986	107.81580000
23.15999986	100.62560000
23.19999986	95.23605000
23.23999986	91.64098000
23.27999986	84.45692000
23.31999986	75.47227000
23.35999986	64.68703000
23.39999986	53.90789000
23.43999986	41.32816000
23.47999986	26.95395000
23.51999986	7.18405700
23.55999986	-10.77914000
23.59999986	-32.34352000
23.63999986	-53.90789000
23.67999986	-71.87719000
23.71999986	-88.04590000
23.75999986	-100.62560000
23.79999986	-107.81580000
23.83999986	-111.41090000
23.87999985	-107.81580000
23.91999985	-97.03055000
23.95999985	-80.86184000
23.99999985	-68.28211000
24.03999985	-66.48762000
24.07999985	-66.48762000
24.11999985	-64.68703000
24.15999985	-64.68703000
24.19999985	-68.28211000
24.23999985	-70.07660000
24.27999985	-73.67168000
24.31999985	-75.47227000
24.35999985	-75.47227000
24.39999985	-75.47227000
24.43999985	-75.47227000
24.47999985	-71.87719000
24.51999985	-66.48762000
24.55999985	-57.50298000
24.59999985	-50.31281000
24.63999985	-43.12265000
24.67999985	-39.52757000
24.71999985	-35.93859000
24.75999985	-28.74844000
24.79999985	-21.55827000
24.83999985	-14.37422000
24.87999985	-1.79448800
24.91999985	10.77914000
24.95999985	25.15336000
24.99999985	39.52757000
25.03999985	55.70238000
25.07999985	70.07660000
25.11999985	86.25141000
25.15999985	104.22070000
25.19999985	118.59490000
25.23999985	129.38020000
25.27999985	141.95990000
25.31999985	147.34950000
25.35999985	147.34950000
25.39999985	136.56420000
25.43999985	123.99060000
25.47999985	115.00600000
25.51999984	109.61030000
25.55999984	104.22070000
25.59999984	98.83114000
25.63999984	91.64098000
25.67999984	86.25141000
25.71999984	77.26676000
25.75999984	66.48762000
25.79999984	55.70238000
25.83999984	43.12265000
25.87999984	26.95395000
25.91999984	12.57363000
25.95999984	-5.38956800
25.99999984	-25.15336000
26.03999984	-44.92325000
26.07999984	-64.68703000
26.11999984	-79.06125000
26.15999984	-95.23605000
26.19999984	-107.81580000
26.23999984	-111.41090000
26.27999984	-115.00600000
26.31999984	-109.61030000
26.35999984	-95.23605000
26.39999984	-84.45692000
26.43999984	-71.87719000
26.47999984	-71.87719000
26.51999984	-66.48762000
26.55999984	-64.68703000
26.59999984	-68.28211000
26.63999984	-73.67168000
26.67999984	-73.67168000
26.71999984	-77.26676000
26.75999984	-79.06125000
26.79999984	-79.06125000
26.83999984	-79.06125000
26.87999984	-75.47227000
26.91999984	-71.87719000
26.95999984	-66.48762000
26.99999984	-57.50298000
27.03999984	-52.10730000
27.07999984	-43.12265000
27.11999984	-37.73308000
27.15999983	-28.74844000
27.19999983	-21.55827000
27.23999983	-14.37422000
27.27999983	-5.38956800
27.31999983	7.18405700
27.35999983	19.76379000
27.39999983	34.13800000
27.43999983	48.51222000
27.47999983	64.68703000
27.51999983	82.65633000
27.55999983	91.64098000
27.59999983	100.62560000
27.63999983	127.57960000
27.67999983	147.34950000
27.71999983	149.14400000
27.75999983	145.54890000
27.79999983	136.56420000
27.83999983	131.17470000
27.87999983	120.39550000
27.91999983	111.41090000
27.95999983	106.01520000
27.99999983	100.62560000
28.03999983	93.44157000
28.07999983	86.25141000
28.11999983	79.06125000
28.15999983	70.07660000
28.19999983	57.50298000
28.23999983	46.71774000
28.27999983	34.13800000
28.31999983	19.76379000
28.35999983	1.79448800
28.39999983	-14.37422000
28.43999983	-34.13800000
28.47999983	-52.10730000
28.51999983	-70.07660000
28.55999983	-86.25141000
28.59999983	-98.83114000
28.63999983	-107.81580000
28.67999983	-113.20540000
28.71999983	-109.61030000
28.75999983	-104.22070000
28.79999982	-97.03055000
28.83999982	-89.84650000
28.87999982	-82.65633000
28.91999982	-75.47227000
28.95999982	-75.47227000
28.99999982	-75.47227000
29.03999982	-75.47227000
29.07999982	-77.26676000
29.11999982	-79.06125000
29.15999982	-79.06125000
29.19999982	-79.06125000
29.23999982	-77.26676000
29.27999982	-79.06125000
29.31999982	-75.47227000
29.35999982	-70.07660000
29.39999982	-64.68703000
29.43999982	-57.50298000
29.47999982	-50.31281000
29.51999982	-41.32816000
29.55999982	-35.93859000
29.59999982	-28.74844000
29.63999982	-21.55827000
29.67999982	-12.57363000
29.71999982	-1.79448800
29.75999982	8.98464900
29.79999982	23.35887000
29.83999982	35.93859000
29.87999982	50.31281000
29.91999982	62.89254000
29.95999982	77.26676000
29.99999982	93.44157000
30.03999982	107.81580000
30.07999982	122.19000000
30.11999982	134.76970000
30.15999982	143.75440000
30.19999982	145.54890000
30.23999982	140.15930000
30.27999982	129.38020000
30.31999982	118.59490000
30.35999982	109.61030000
30.39999982	106.01520000
30.43999982	98.83114000
30.47999981	91.64098000
30.51999981	82.65633000
30.55999981	73.67168000
30.59999981	62.89254000
30.63999981	52.10730000
30.67999981	39.52757000
30.71999981	26.95395000
30.75999981	12.57363000
30.79999981	-1.79448800
30.83999981	-19.76379000
30.87999981	-37.73308000
30.91999981	-55.70238000
30.95999981	-73.67168000
30.99999981	-88.04590000
31.03999981	-98.83114000
31.07999981	-107.81580000
31.11999981	-107.81580000
31.15999981	-107.81580000
31.19999981	-98.83114000
31.23999981	-93.44157000
31.27999981	-84.45692000
31.31999981	-80.86184000
31.35999981	-75.47227000
31.39999981	-75.47227000
