Time,Channel A
(us),(mV)

0.00000000,130.11560000
0.04000000,121.12800000
0.08000000,107.65400000
0.12000000,94.18011000
0.16000000,85.19241000
0.20000000,71.71850000
0.24000000,58.24457000
0.28000000,44.75539000
0.32000000,35.78295000
0.36000000,26.79525000
0.40000000,17.80755000
0.44000000,8.81984900
0.48000000,-0.15259250
0.52000000,-13.62651000
0.56000000,-27.10044000
0.60000000,-36.08813000
0.64000000,-54.04828000
0.68000000,-67.52220000
0.72000000,-81.01138000
0.76000000,-89.98383000
0.80000000,-94.48530000
0.83999999,-94.48530000
0.87999999,-89.98383000
0.91999999,-76.50990000
0.95999999,-72.02368000
0.99999999,-67.52220000
1.03999999,-63.03598000
1.07999999,-58.54976000
1.11999999,-58.54976000
1.15999999,-58.54976000
1.19999999,-58.54976000
1.23999999,-63.03598000
1.27999999,-63.03598000
1.31999999,-67.52220000
1.35999999,-63.03598000
1.39999999,-63.03598000
1.43999999,-63.03598000
1.47999999,-58.54976000
1.51999999,-45.06058000
1.55999999,-36.08813000
1.59999999,-36.08813000
1.63999999,-22.59896000
1.67999999,-18.11273000
1.71999999,-9.12503300
1.75999999,-4.63881300
1.79999999,4.33362800
1.83999999,13.32133000
1.87999999,26.79525000
1.91999999,35.78295000
1.95999999,49.25687000
1.99999999,62.73079000
2.03999999,76.20471000
2.07999999,89.67863000
2.11999999,107.65400000
2.15999999,116.64170000
2.19999999,125.61420000
2.23999999,139.10340000
2.27999999,143.58960000
2.31999999,139.10340000
2.35999999,134.60190000
2.39999999,125.61420000
2.43999999,112.14030000
2.47999998,103.15250000
2.51999998,89.67863000
2.55999998,76.20471000
2.59999998,67.21701000
2.63999998,53.74309000
2.67999998,44.75539000
2.71999998,35.78295000
2.75999998,26.79525000
2.79999998,13.32133000
2.83999998,4.33362800
2.87999998,-9.12503300
2.91999998,-22.59896000
2.95999998,-36.08813000
2.99999998,-49.56206000
3.03999998,-63.03598000
3.07999998,-76.50990000
3.11999998,-89.98383000
3.15999998,-98.97152000
3.19999998,-103.45770000
3.23999998,-98.97152000
3.27999998,-94.48530000
3.31999998,-89.98383000
3.35999998,-81.01138000
3.39999998,-72.02368000
3.43999998,-67.52220000
3.47999998,-63.03598000
3.51999998,-58.54976000
3.55999998,-58.54976000
3.59999998,-58.54976000
3.63999998,-58.54976000
3.67999998,-58.54976000
3.71999998,-63.03598000
3.75999998,-58.54976000
3.79999998,-58.54976000
3.83999998,-54.04828000
3.87999998,-54.04828000
3.91999998,-45.06058000
3.95999998,-36.08813000
3.99999998,-27.10044000
4.03999998,-22.59896000
4.07999998,-13.62651000
4.11999997,-4.63881300
4.15999997,-0.15259250
4.19999997,4.33362800
4.23999997,17.80755000
4.27999997,31.28147000
4.31999997,44.75539000
4.35999997,53.74309000
4.39999997,71.71850000
4.43999997,80.70620000
4.47999997,98.66634000
4.51999997,112.14030000
4.55999997,125.61420000
4.59999997,134.60190000
4.63999997,139.10340000
4.67999997,139.10340000
4.71999997,134.60190000
4.75999997,125.61420000
4.79999997,112.14030000
4.83999997,103.15250000
4.87999997,89.67863000
4.91999997,76.20471000
4.95999997,67.21701000
4.99999997,53.74309000
5.03999997,44.75539000
5.07999997,35.78295000
5.11999997,26.79525000
5.15999997,17.80755000
5.19999997,8.81984900
5.23999997,-4.63881300
5.27999997,-18.11273000
5.31999997,-31.58666000
5.35999997,-40.57436000
5.39999997,-58.54976000
5.43999997,-72.02368000
5.47999997,-85.49760000
5.51999997,-94.48530000
5.55999997,-98.97152000
5.59999997,-98.97152000
5.63999997,-94.48530000
5.67999997,-85.49760000
5.71999997,-76.50990000
5.75999996,-72.02368000
5.79999996,-72.02368000
5.83999996,-67.52220000
5.87999996,-63.03598000
5.91999996,-58.54976000
5.95999996,-63.03598000
5.99999996,-63.03598000
6.03999996,-63.03598000
6.07999996,-63.03598000
6.11999996,-58.54976000
6.15999996,-58.54976000
6.19999996,-54.04828000
6.23999996,-54.04828000
6.27999996,-45.06058000
6.31999996,-40.57436000
6.35999996,-31.58666000
6.39999996,-27.10044000
6.43999996,-18.11273000
6.47999996,-13.62651000
6.51999996,-4.63881300
6.55999996,-0.15259250
6.59999996,13.32133000
6.63999996,22.29377000
6.67999996,35.78295000
6.71999996,44.75539000
6.75999996,58.24457000
6.79999996,71.71850000
6.83999996,89.67863000
6.87999996,103.15250000
6.91999996,121.12800000
6.95999996,130.11560000
6.99999996,139.10340000
7.03999996,134.60190000
7.07999996,134.60190000
7.11999996,125.61420000
7.15999996,121.12800000
7.19999996,107.65400000
7.23999996,98.66634000
7.27999996,85.19241000
7.31999996,71.71850000
7.35999996,62.73079000
7.39999996,49.25687000
7.43999995,40.26917000
7.47999995,31.28147000
7.51999995,22.29377000
7.55999995,13.32133000
7.59999995,-0.15259250
7.63999995,-9.12503300
7.67999995,-22.59896000
7.71999995,-36.08813000
7.75999995,-49.56206000
7.79999995,-67.52220000
7.83999995,-76.50990000
7.87999995,-89.98383000
7.91999995,-89.98383000
7.95999995,-89.98383000
7.99999995,-85.49760000
8.03999995,-81.01138000
8.07999995,-72.02368000
8.11999995,-72.02368000
8.15999995,-63.03598000
8.19999995,-63.03598000
8.23999995,-58.54976000
8.27999995,-58.54976000
8.31999995,-63.03598000
8.35999995,-63.03598000
8.39999995,-63.03598000
8.43999995,-63.03598000
8.47999995,-63.03598000
8.51999995,-63.03598000
8.55999995,-58.54976000
8.59999995,-54.04828000
8.63999995,-45.06058000
8.67999995,-40.57436000
8.71999995,-36.08813000
8.75999995,-27.10044000
8.79999995,-18.11273000
8.83999995,-13.62651000
8.87999995,-4.63881300
8.91999995,-0.15259250
8.95999995,13.32133000
8.99999995,17.80755000
9.03999995,35.78295000
9.07999994,44.75539000
9.11999994,62.73079000
9.15999994,71.71850000
9.19999994,71.71850000
9.23999994,94.18011000
9.27999994,121.12800000
9.31999994,130.11560000
9.35999994,130.11560000
9.39999994,130.11560000
9.43999994,134.60190000
9.47999994,134.60190000
9.51999994,121.12800000
9.55999994,107.65400000
9.59999994,94.18011000
9.63999994,80.70620000
9.67999994,53.74309000
9.71999994,40.26917000
9.75999994,44.75539000
9.79999994,53.74309000
9.83999994,49.25687000
9.87999994,40.26917000
9.91999994,49.25687000
9.95999994,49.25687000
9.99999994,35.78295000
10.03999994,4.33362800
10.07999994,-22.59896000
10.11999994,-45.06058000
10.15999994,-63.03598000
10.19999994,-81.01138000
10.23999994,-103.45770000
10.27999994,-112.44540000
10.31999994,-112.44540000
10.35999994,-98.97152000
10.39999994,-89.98383000
10.43999994,-85.49760000
10.47999994,-76.50990000
10.51999994,-67.52220000
10.55999994,-63.03598000
10.59999994,-58.54976000
10.63999994,-63.03598000
10.67999994,-58.54976000
10.71999993,-58.54976000
10.75999993,-54.04828000
10.79999993,-58.54976000
10.83999993,-54.04828000
10.87999993,-54.04828000
10.91999993,-49.56206000
10.95999993,-40.57436000
10.99999993,-36.08813000
11.03999993,-31.58666000
11.07999993,-31.58666000
11.11999993,-27.10044000
11.15999993,-22.59896000
11.19999993,-18.11273000
11.23999993,-18.11273000
11.27999993,-9.12503300
11.31999993,-0.15259250
11.35999993,13.32133000
11.39999993,31.28147000
11.43999993,44.75539000
11.47999993,58.24457000
11.51999993,71.71850000
11.55999993,89.67863000
11.59999993,103.15250000
11.63999993,116.64170000
11.67999993,125.61420000
11.71999993,139.10340000
11.75999993,143.58960000
11.79999993,143.58960000
11.83999993,139.10340000
11.87999993,134.60190000
11.91999993,121.12800000
11.95999993,107.65400000
11.99999993,98.66634000
12.03999993,80.70620000
12.07999993,67.21701000
12.11999993,53.74309000
12.15999993,40.26917000
12.19999993,31.28147000
12.23999993,17.80755000
12.27999993,8.81984900
12.31999993,-0.15259250
12.35999992,-9.12503300
12.39999992,-22.59896000
12.43999992,-36.08813000
12.47999992,-49.56206000
12.51999992,-63.03598000
12.55999992,-76.50990000
12.59999992,-85.49760000
12.63999992,-94.48530000
12.67999992,-94.48530000
12.71999992,-89.98383000
12.75999992,-85.49760000
12.79999992,-76.50990000
12.83999992,-72.02368000
12.87999992,-63.03598000
12.91999992,-63.03598000
12.95999992,-58.54976000
12.99999992,-58.54976000
13.03999992,-58.54976000
13.07999992,-58.54976000
13.11999992,-58.54976000
13.15999992,-58.54976000
13.19999992,-63.03598000
13.23999992,-63.03598000
13.27999992,-58.54976000
13.31999992,-54.04828000
13.35999992,-45.06058000
13.39999992,-36.08813000
13.43999992,-31.58666000
13.47999992,-22.59896000
13.51999992,-18.11273000
13.55999992,-9.12503300
13.59999992,-0.15259250
13.63999992,4.33362800
13.67999992,13.32133000
13.71999992,22.29377000
13.75999992,35.78295000
13.79999992,44.75539000
13.83999992,58.24457000
13.87999992,71.71850000
13.91999992,85.19241000
13.95999992,107.65400000
13.99999991,116.64170000
14.03999991,125.61420000
14.07999991,134.60190000
14.11999991,139.10340000
14.15999991,134.60190000
14.19999991,130.11560000
14.23999991,121.12800000
14.27999991,107.65400000
14.31999991,98.66634000
14.35999991,89.67863000
14.39999991,76.20471000
14.43999991,67.21701000
14.47999991,53.74309000
14.51999991,44.75539000
14.55999991,35.78295000
14.59999991,22.29377000
14.63999991,13.32133000
14.67999991,-0.15259250
14.71999991,-9.12503300
14.75999991,-22.59896000
14.79999991,-36.08813000
14.83999991,-54.04828000
14.87999991,-67.52220000
14.91999991,-81.01138000
14.95999991,-89.98383000
14.99999991,-94.48530000
15.03999991,-94.48530000
15.07999991,-94.48530000
15.11999991,-89.98383000
15.15999991,-85.49760000
15.19999991,-81.01138000
15.23999991,-72.02368000
15.27999991,-72.02368000
15.31999991,-63.03598000
15.35999991,-63.03598000
15.39999991,-54.04828000
15.43999991,-54.04828000
15.47999991,-45.06058000
15.51999991,-54.04828000
15.55999991,-58.54976000
15.59999991,-58.54976000
15.63999990,-54.04828000
15.67999990,-54.04828000
15.71999990,-45.06058000
15.75999990,-40.57436000
15.79999990,-36.08813000
15.83999990,-27.10044000
15.87999990,-22.59896000
15.91999990,-13.62651000
15.95999990,-9.12503300
15.99999990,-0.15259250
16.03999990,8.81984900
16.07999990,22.29377000
16.11999990,31.28147000
16.15999990,44.75539000
16.19999990,58.24457000
16.23999990,71.71850000
16.27999990,89.67863000
16.31999990,107.65400000
16.35999990,116.64170000
16.39999990,130.11560000
16.43999990,139.10340000
16.47999990,143.58960000
16.51999990,139.10340000
16.55999990,130.11560000
16.59999990,121.12800000
16.63999990,112.14030000
16.67999990,98.66634000
16.71999990,85.19241000
16.75999990,71.71850000
16.79999990,62.73079000
16.83999990,49.25687000
16.87999990,40.26917000
16.91999990,31.28147000
16.95999990,17.80755000
16.99999990,8.81984900
17.03999990,-0.15259250
17.07999990,-9.12503300
17.11999990,-22.59896000
17.15999990,-36.08813000
17.19999990,-54.04828000
17.23999990,-67.52220000
17.27999989,-81.01138000
17.31999989,-89.98383000
17.35999989,-98.97152000
17.39999989,-98.97152000
17.43999989,-98.97152000
17.47999989,-89.98383000
17.51999989,-81.01138000
17.55999989,-72.02368000
17.59999989,-67.52220000
17.63999989,-58.54976000
17.67999989,-58.54976000
17.71999989,-58.54976000
17.75999989,-54.04828000
17.79999989,-54.04828000
17.83999989,-58.54976000
17.87999989,-63.03598000
17.91999989,-63.03598000
17.95999989,-58.54976000
17.99999989,-58.54976000
18.03999989,-58.54976000
18.07999989,-54.04828000
18.11999989,-45.06058000
18.15999989,-36.08813000
18.19999989,-31.58666000
18.23999989,-22.59896000
18.27999989,-13.62651000
18.31999989,-4.63881300
18.35999989,-0.15259250
18.39999989,13.32133000
18.43999989,22.29377000
18.47999989,35.78295000
18.51999989,49.25687000
18.55999989,58.24457000
18.59999989,71.71850000
18.63999989,85.19241000
18.67999989,103.15250000
18.71999989,112.14030000
18.75999989,125.61420000
18.79999989,134.60190000
18.83999989,139.10340000
18.87999989,139.10340000
18.91999989,130.11560000
18.95999988,125.61420000
18.99999988,112.14030000
19.03999988,89.67863000
19.07999988,89.67863000
19.11999988,85.19241000
19.15999988,67.21701000
19.19999988,53.74309000
19.23999988,35.78295000
19.27999988,35.78295000
19.31999988,22.29377000
19.35999988,8.81984900
19.39999988,-0.15259250
19.43999988,-4.63881300
19.47999988,-22.59896000
19.51999988,-36.08813000
19.55999988,-49.56206000
19.59999988,-67.52220000
19.63999988,-81.01138000
19.67999988,-89.98383000
19.71999988,-94.48530000
19.75999988,-94.48530000
19.79999988,-94.48530000
19.83999988,-89.98383000
19.87999988,-81.01138000
19.91999988,-76.50990000
19.95999988,-72.02368000
19.99999988,-67.52220000
20.03999988,-67.52220000
20.07999988,-63.03598000
20.11999988,-63.03598000
20.15999988,-63.03598000
20.19999988,-63.03598000
20.23999988,-67.52220000
20.27999988,-63.03598000
20.31999988,-63.03598000
20.35999988,-63.03598000
20.39999988,-54.04828000
20.43999988,-49.56206000
20.47999988,-45.06058000
20.51999988,-36.08813000
20.55999988,-27.10044000
20.59999987,-18.11273000
20.63999987,-13.62651000
20.67999987,-4.63881300
20.71999987,4.33362800
20.75999987,8.81984900
20.79999987,17.80755000
20.83999987,31.28147000
20.87999987,44.75539000
20.91999987,53.74309000
20.95999987,67.21701000
20.99999987,76.20471000
21.03999987,89.67863000
21.07999987,103.15250000
21.11999987,116.64170000
21.15999987,125.61420000
21.19999987,134.60190000
21.23999987,134.60190000
21.27999987,130.11560000
21.31999987,125.61420000
21.35999987,116.64170000
21.39999987,103.15250000
21.43999987,94.18011000
21.47999987,85.19241000
21.51999987,71.71850000
21.55999987,62.73079000
21.59999987,49.25687000
21.63999987,35.78295000
21.67999987,26.79525000
21.71999987,17.80755000
21.75999987,8.81984900
21.79999987,-0.15259250
21.83999987,-13.62651000
21.87999987,-27.10044000
21.91999987,-40.57436000
21.95999987,-58.54976000
21.99999987,-72.02368000
22.03999987,-85.49760000
22.07999987,-94.48530000
22.11999987,-103.45770000
22.15999987,-103.45770000
22.19999987,-98.97152000
22.23999986,-89.98383000
22.27999986,-85.49760000
22.31999986,-67.52220000
22.35999986,-63.03598000
22.39999986,-58.54976000
22.43999986,-54.04828000
22.47999986,-54.04828000
22.51999986,-58.54976000
22.55999986,-58.54976000
22.59999986,-58.54976000
22.63999986,-58.54976000
22.67999986,-63.03598000
22.71999986,-63.03598000
22.75999986,-58.54976000
22.79999986,-58.54976000
22.83999986,-54.04828000
22.87999986,-40.57436000
22.91999986,-36.08813000
22.95999986,-27.10044000
22.99999986,-18.11273000
23.03999986,-18.11273000
23.07999986,-9.12503300
23.11999986,-0.15259250
23.15999986,13.32133000
23.19999986,17.80755000
23.23999986,31.28147000
23.27999986,44.75539000
23.31999986,58.24457000
23.35999986,71.71850000
23.39999986,89.67863000
23.43999986,107.65400000
23.47999986,125.61420000
23.51999986,134.60190000
23.55999986,143.58960000
23.59999986,143.58960000
23.63999986,139.10340000
23.67999986,134.60190000
23.71999986,121.12800000
23.75999986,107.65400000
23.79999986,98.66634000
23.83999986,85.19241000
23.87999985,71.71850000
23.91999985,58.24457000
23.95999985,49.25687000
23.99999985,44.75539000
24.03999985,31.28147000
24.07999985,22.29377000
24.11999985,13.32133000
24.15999985,-0.15259250
24.19999985,-9.12503300
24.23999985,-22.59896000
24.27999985,-36.08813000
24.31999985,-54.04828000
24.35999985,-67.52220000
24.39999985,-81.01138000
24.43999985,-94.48530000
24.47999985,-98.97152000
24.51999985,-103.45770000
24.55999985,-98.97152000
24.59999985,-94.48530000
24.63999985,-81.01138000
24.67999985,-72.02368000
24.71999985,-67.52220000
24.75999985,-63.03598000
24.79999985,-63.03598000
24.83999985,-58.54976000
24.87999985,-63.03598000
24.91999985,-58.54976000
24.95999985,-63.03598000
24.99999985,-63.03598000
25.03999985,-67.52220000
25.07999985,-63.03598000
25.11999985,-63.03598000
25.15999985,-58.54976000
25.19999985,-54.04828000
25.23999985,-40.57436000
25.27999985,-31.58666000
25.31999985,-22.59896000
25.35999985,-22.59896000
25.39999985,-13.62651000
25.43999985,-4.63881300
25.47999985,4.33362800
25.51999984,13.32133000
25.55999984,17.80755000
25.59999984,31.28147000
25.63999984,40.26917000
25.67999984,53.74309000
25.71999984,67.21701000
25.75999984,80.70620000
25.79999984,89.67863000
25.83999984,107.65400000
25.87999984,121.12800000
25.91999984,125.61420000
25.95999984,134.60190000
25.99999984,134.60190000
26.03999984,130.11560000
26.07999984,125.61420000
26.11999984,112.14030000
26.15999984,103.15250000
26.19999984,89.67863000
26.23999984,76.20471000
26.27999984,67.21701000
26.31999984,53.74309000
26.35999984,44.75539000
26.39999984,35.78295000
26.43999984,26.79525000
26.47999984,17.80755000
26.51999984,4.33362800
26.55999984,-4.63881300
26.59999984,-18.11273000
26.63999984,-31.58666000
26.67999984,-45.06058000
26.71999984,-63.03598000
26.75999984,-76.50990000
26.79999984,-89.98383000
26.83999984,-98.97152000
26.87999984,-103.45770000
26.91999984,-98.97152000
26.95999984,-94.48530000
26.99999984,-85.49760000
27.03999984,-76.50990000
27.07999984,-72.02368000
27.11999984,-67.52220000
27.15999983,-63.03598000
27.19999983,-63.03598000
27.23999983,-63.03598000
27.27999983,-58.54976000
27.31999983,-58.54976000
27.35999983,-58.54976000
27.39999983,-63.03598000
27.43999983,-58.54976000
27.47999983,-58.54976000
27.51999983,-54.04828000
27.55999983,-54.04828000
27.59999983,-45.06058000
27.63999983,-36.08813000
27.67999983,-31.58666000
27.71999983,-22.59896000
27.75999983,-18.11273000
27.79999983,-9.12503300
27.83999983,-4.63881300
27.87999983,-0.15259250
27.91999983,13.32133000
27.95999983,22.29377000
27.99999983,35.78295000
28.03999983,44.75539000
28.07999983,58.24457000
28.11999983,76.20471000
28.15999983,89.67863000
28.19999983,103.15250000
28.23999983,121.12800000
28.27999983,125.61420000
28.31999983,139.10340000
28.35999983,139.10340000
28.39999983,134.60190000
28.43999983,125.61420000
28.47999983,116.64170000
28.51999983,107.65400000
28.55999983,94.18011000
28.59999983,85.19241000
28.63999983,71.71850000
28.67999983,58.24457000
28.71999983,49.25687000
28.75999983,40.26917000
28.79999982,31.28147000
28.83999982,22.29377000
28.87999982,-0.15259250
28.91999982,-4.63881300
28.95999982,-4.63881300
28.99999982,-22.59896000
29.03999982,-45.06058000
29.07999982,-63.03598000
29.11999982,-72.02368000
29.15999982,-81.01138000
29.19999982,-94.48530000
29.23999982,-98.97152000
29.27999982,-98.97152000
29.31999982,-94.48530000
29.35999982,-89.98383000
29.39999982,-81.01138000
29.43999982,-72.02368000
29.47999982,-72.02368000
29.51999982,-63.03598000
29.55999982,-58.54976000
29.59999982,-58.54976000
29.63999982,-58.54976000
29.67999982,-58.54976000
29.71999982,-58.54976000
29.75999982,-63.03598000
29.79999982,-63.03598000
29.83999982,-63.03598000
29.87999982,-58.54976000
29.91999982,-54.04828000
29.95999982,-49.56206000
29.99999982,-45.06058000
30.03999982,-36.08813000
30.07999982,-27.10044000
30.11999982,-18.11273000
30.15999982,-9.12503300
30.19999982,-4.63881300
30.23999982,-0.15259250
30.27999982,8.81984900
30.31999982,26.79525000
30.35999982,31.28147000
30.39999982,44.75539000
30.43999982,53.74309000
30.47999981,71.71850000
30.51999981,85.19241000
30.55999981,103.15250000
30.59999981,116.64170000
30.63999981,130.11560000
30.67999981,139.10340000
30.71999981,139.10340000
30.75999981,134.60190000
30.79999981,130.11560000
30.83999981,121.12800000
30.87999981,107.65400000
30.91999981,98.66634000
30.95999981,85.19241000
30.99999981,71.71850000
31.03999981,62.73079000
31.07999981,53.74309000
31.11999981,40.26917000
31.15999981,31.28147000
31.19999981,17.80755000
31.23999981,13.32133000
31.27999981,-0.15259250
31.31999981,-9.12503300
31.35999981,-22.59896000
31.39999981,-36.08813000
31.43999981,-54.04828000
31.47999981,-67.52220000
