Time	Channel A
(us)	(mV)

0.00000000	112.14030000
0.04000000	121.12800000
0.08000000	130.11560000
0.12000000	134.60190000
0.16000000	139.10340000
0.20000000	143.58960000
0.24000000	143.58960000
0.28000000	143.58960000
0.32000000	139.10340000
0.36000000	139.10340000
0.40000000	130.11560000
0.44000000	121.12800000
0.48000000	107.65400000
0.52000000	98.66634000
0.56000000	85.19241000
0.60000000	71.71850000
0.64000000	53.74309000
0.68000000	44.75539000
0.72000000	31.28147000
0.76000000	13.32133000
0.80000000	-0.15259250
0.83999999	-9.12503300
0.87999999	-22.59896000
0.91999999	-31.58666000
0.95999999	-36.08813000
0.99999999	-45.06058000
1.03999999	-54.04828000
1.07999999	-63.03598000
1.11999999	-67.52220000
1.15999999	-72.02368000
1.19999999	-81.01138000
1.23999999	-89.98383000
1.27999999	-89.98383000
1.31999999	-98.97152000
1.35999999	-103.45770000
1.39999999	-112.44540000
1.43999999	-116.94690000
1.47999999	-121.43310000
1.51999999	-125.91940000
1.55999999	-130.42080000
1.59999999	-130.42080000
1.63999999	-130.42080000
1.67999999	-125.91940000
1.71999999	-125.91940000
1.75999999	-116.94690000
1.79999999	-112.44540000
1.83999999	-103.45770000
1.87999999	-89.98383000
1.91999999	-81.01138000
1.95999999	-67.52220000
1.99999999	-54.04828000
2.03999999	-36.08813000
2.07999999	-22.59896000
2.11999999	-9.12503300
2.15999999	4.33362800
2.19999999	17.80755000
2.23999999	26.79525000
2.27999999	35.78295000
2.31999999	49.25687000
2.35999999	58.24457000
2.39999999	67.21701000
2.43999999	71.71850000
2.47999998	80.70620000
2.51999998	85.19241000
2.55999998	94.18011000
2.59999998	103.15250000
2.63999998	107.65400000
2.67999998	116.64170000
2.71999998	125.61420000
2.75999998	130.11560000
2.79999998	139.10340000
2.83999998	143.58960000
2.87999998	143.58960000
2.91999998	143.58960000
2.95999998	143.58960000
2.99999998	139.10340000
3.03999998	130.11560000
3.07999998	121.12800000
3.11999998	112.14030000
3.15999998	98.66634000
3.19999998	85.19241000
3.23999998	71.71850000
3.27999998	58.24457000
3.31999998	44.75539000
3.35999998	31.28147000
3.39999998	17.80755000
3.43999998	4.33362800
3.47999998	-9.12503300
3.51999998	-18.11273000
3.55999998	-27.10044000
3.59999998	-36.08813000
3.63999998	-45.06058000
3.67999998	-54.04828000
3.71999998	-63.03598000
3.75999998	-67.52220000
3.79999998	-72.02368000
3.83999998	-76.50990000
3.87999998	-85.49760000
3.91999998	-89.98383000
3.95999998	-98.97152000
3.99999998	-103.45770000
4.03999998	-107.95920000
4.07999998	-112.44540000
4.11999997	-116.94690000
4.15999997	-125.91940000
4.19999997	-130.42080000
4.23999997	-134.90710000
4.27999997	-134.90710000
4.31999997	-130.42080000
4.35999997	-125.91940000
4.39999997	-116.94690000
4.43999997	-112.44540000
4.47999997	-103.45770000
4.51999997	-94.48530000
4.55999997	-81.01138000
4.59999997	-72.02368000
4.63999997	-54.04828000
4.67999997	-40.57436000
4.71999997	-27.10044000
4.75999997	-13.62651000
4.79999997	-0.15259250
4.83999997	13.32133000
4.87999997	26.79525000
4.91999997	35.78295000
4.95999997	49.25687000
4.99999997	58.24457000
5.03999997	67.21701000
5.07999997	71.71850000
5.11999997	80.70620000
5.15999997	85.19241000
5.19999997	89.67863000
5.23999997	103.15250000
5.27999997	107.65400000
5.31999997	116.64170000
5.35999997	125.61420000
5.39999997	130.11560000
5.43999997	134.60190000
5.47999997	139.10340000
5.51999997	143.58960000
5.55999997	143.58960000
5.59999997	143.58960000
5.63999997	139.10340000
5.67999997	130.11560000
5.71999997	125.61420000
5.75999996	112.14030000
5.79999996	103.15250000
5.83999996	89.67863000
5.87999996	76.20471000
5.91999996	58.24457000
5.95999996	49.25687000
5.99999996	35.78295000
6.03999996	17.80755000
6.07999996	8.81984900
6.11999996	-4.63881300
6.15999996	-13.62651000
6.19999996	-27.10044000
6.23999996	-36.08813000
6.27999996	-40.57436000
6.31999996	-49.56206000
6.35999996	-58.54976000
6.39999996	-63.03598000
6.43999996	-72.02368000
6.47999996	-76.50990000
6.51999996	-81.01138000
6.55999996	-89.98383000
6.59999996	-94.48530000
6.63999996	-103.45770000
6.67999996	-107.95920000
6.71999996	-112.44540000
6.75999996	-121.43310000
6.79999996	-125.91940000
6.83999996	-130.42080000
6.87999996	-130.42080000
6.91999996	-130.42080000
6.95999996	-130.42080000
6.99999996	-125.91940000
7.03999996	-125.91940000
7.07999996	-116.94690000
7.11999996	-107.95920000
7.15999996	-94.48530000
7.19999996	-85.49760000
7.23999996	-72.02368000
7.27999996	-58.54976000
7.31999996	-40.57436000
7.35999996	-31.58666000
7.39999996	-13.62651000
7.43999995	-0.15259250
7.47999995	13.32133000
7.51999995	26.79525000
7.55999995	35.78295000
7.59999995	44.75539000
7.63999995	53.74309000
7.67999995	62.73079000
7.71999995	71.71850000
7.75999995	76.20471000
7.79999995	85.19241000
7.83999995	89.67863000
7.87999995	98.66634000
7.91999995	107.65400000
7.95999995	112.14030000
7.99999995	121.12800000
8.03999995	130.11560000
8.07999995	134.60190000
8.11999995	143.58960000
8.15999995	143.58960000
8.19999995	143.58960000
8.23999995	143.58960000
8.27999995	139.10340000
8.31999995	134.60190000
8.35999995	125.61420000
8.39999995	116.64170000
8.43999995	107.65400000
8.47999995	94.18011000
8.51999995	80.70620000
8.55999995	67.21701000
8.59999995	49.25687000
8.63999995	35.78295000
8.67999995	22.29377000
8.71999995	8.81984900
8.75999995	-0.15259250
8.79999995	-13.62651000
8.83999995	-22.59896000
8.87999995	-31.58666000
8.91999995	-40.57436000
8.95999995	-49.56206000
8.99999995	-54.04828000
9.03999995	-63.03598000
9.07999994	-67.52220000
9.11999994	-76.50990000
9.15999994	-81.01138000
9.19999994	-85.49760000
9.23999994	-103.45770000
9.27999994	-103.45770000
9.31999994	-98.97152000
9.35999994	-112.44540000
9.39999994	-121.43310000
9.43999994	-125.91940000
9.47999994	-125.91940000
9.51999994	-130.42080000
9.55999994	-130.42080000
9.59999994	-130.42080000
9.63999994	-125.91940000
9.67999994	-125.91940000
9.71999994	-116.94690000
9.75999994	-107.95920000
9.79999994	-98.97152000
9.83999994	-89.98383000
9.87999994	-76.50990000
9.91999994	-58.54976000
9.95999994	-49.56206000
9.99999994	-31.58666000
10.03999994	-18.11273000
10.07999994	-4.63881300
10.11999994	8.81984900
10.15999994	17.80755000
10.19999994	31.28147000
10.23999994	44.75539000
10.27999994	53.74309000
10.31999994	62.73079000
10.35999994	71.71850000
10.39999994	71.71850000
10.43999994	80.70620000
10.47999994	89.67863000
10.51999994	98.66634000
10.55999994	107.65400000
10.59999994	116.64170000
10.63999994	121.12800000
10.67999994	130.11560000
10.71999993	134.60190000
10.75999993	139.10340000
10.79999993	143.58960000
10.83999993	143.58960000
10.87999993	143.58960000
10.91999993	139.10340000
10.95999993	139.10340000
10.99999993	130.11560000
11.03999993	121.12800000
11.07999993	107.65400000
11.11999993	98.66634000
11.15999993	85.19241000
11.19999993	71.71850000
11.23999993	53.74309000
11.27999993	40.26917000
11.31999993	26.79525000
11.35999993	13.32133000
11.39999993	-0.15259250
11.43999993	-9.12503300
11.47999993	-22.59896000
11.51999993	-31.58666000
11.55999993	-36.08813000
11.59999993	-49.56206000
11.63999993	-54.04828000
11.67999993	-63.03598000
11.71999993	-67.52220000
11.75999993	-76.50990000
11.79999993	-81.01138000
11.83999993	-85.49760000
11.87999993	-89.98383000
11.91999993	-98.97152000
11.95999993	-107.95920000
11.99999993	-112.44540000
12.03999993	-116.94690000
12.07999993	-125.91940000
12.11999993	-125.91940000
12.15999993	-130.42080000
12.19999993	-130.42080000
12.23999993	-130.42080000
12.27999993	-130.42080000
12.31999993	-125.91940000
12.35999992	-116.94690000
12.39999992	-112.44540000
12.43999992	-103.45770000
12.47999992	-89.98383000
12.51999992	-76.50990000
12.55999992	-63.03598000
12.59999992	-49.56206000
12.63999992	-36.08813000
12.67999992	-22.59896000
12.71999992	-9.12503300
12.75999992	4.33362800
12.79999992	17.80755000
12.83999992	31.28147000
12.87999992	40.26917000
12.91999992	49.25687000
12.95999992	58.24457000
12.99999992	67.21701000
13.03999992	71.71850000
13.07999992	80.70620000
13.11999992	89.67863000
13.15999992	94.18011000
13.19999992	103.15250000
13.23999992	112.14030000
13.27999992	121.12800000
13.31999992	125.61420000
13.35999992	134.60190000
13.39999992	139.10340000
13.43999992	143.58960000
13.47999992	143.58960000
13.51999992	143.58960000
13.55999992	143.58960000
13.59999992	134.60190000
13.63999992	130.11560000
13.67999992	121.12800000
13.71999992	112.14030000
13.75999992	98.66634000
13.79999992	85.19241000
13.83999992	71.71850000
13.87999992	58.24457000
13.91999992	40.26917000
13.95999992	31.28147000
13.99999991	13.32133000
14.03999991	4.33362800
14.07999991	-9.12503300
14.11999991	-27.10044000
14.15999991	-31.58666000
14.19999991	-36.08813000
14.23999991	-45.06058000
14.27999991	-54.04828000
14.31999991	-58.54976000
14.35999991	-67.52220000
14.39999991	-72.02368000
14.43999991	-81.01138000
14.47999991	-85.49760000
14.51999991	-89.98383000
14.55999991	-98.97152000
14.59999991	-103.45770000
14.63999991	-107.95920000
14.67999991	-116.94690000
14.71999991	-121.43310000
14.75999991	-125.91940000
14.79999991	-125.91940000
14.83999991	-130.42080000
14.87999991	-130.42080000
14.91999991	-130.42080000
14.95999991	-125.91940000
14.99999991	-121.43310000
15.03999991	-112.44540000
15.07999991	-103.45770000
15.11999991	-94.48530000
15.15999991	-85.49760000
15.19999991	-67.52220000
15.23999991	-54.04828000
15.27999991	-36.08813000
15.31999991	-22.59896000
15.35999991	-9.12503300
15.39999991	-0.15259250
15.43999991	13.32133000
15.47999991	31.28147000
15.51999991	35.78295000
15.55999991	49.25687000
15.59999991	53.74309000
15.63999990	62.73079000
15.67999990	71.71850000
15.71999990	80.70620000
15.75999990	89.67863000
15.79999990	94.18011000
15.83999990	103.15250000
15.87999990	107.65400000
15.91999990	116.64170000
15.95999990	125.61420000
15.99999990	130.11560000
16.03999990	134.60190000
16.07999990	143.58960000
16.11999990	143.58960000
16.15999990	143.58960000
16.19999990	143.58960000
16.23999990	139.10340000
16.27999990	130.11560000
16.31999990	125.61420000
16.35999990	116.64170000
16.39999990	103.15250000
16.43999990	89.67863000
16.47999990	76.20471000
16.51999990	62.73079000
16.55999990	44.75539000
16.59999990	35.78295000
16.63999990	17.80755000
16.67999990	8.81984900
16.71999990	-4.63881300
16.75999990	-18.11273000
16.79999990	-27.10044000
16.83999990	-36.08813000
16.87999990	-45.06058000
16.91999990	-54.04828000
16.95999990	-58.54976000
16.99999990	-63.03598000
17.03999990	-72.02368000
17.07999990	-76.50990000
17.11999990	-85.49760000
17.15999990	-89.98383000
17.19999990	-98.97152000
17.23999990	-98.97152000
17.27999989	-107.95920000
17.31999989	-112.44540000
17.35999989	-121.43310000
17.39999989	-125.91940000
17.43999989	-125.91940000
17.47999989	-130.42080000
17.51999989	-130.42080000
17.55999989	-130.42080000
17.59999989	-130.42080000
17.63999989	-121.43310000
17.67999989	-112.44540000
17.71999989	-107.95920000
17.75999989	-94.48530000
17.79999989	-81.01138000
17.83999989	-72.02368000
17.87999989	-54.04828000
17.91999989	-40.57436000
17.95999989	-27.10044000
17.99999989	-13.62651000
18.03999989	-0.15259250
18.07999989	13.32133000
18.11999989	26.79525000
18.15999989	35.78295000
18.19999989	44.75539000
18.23999989	53.74309000
18.27999989	62.73079000
18.31999989	71.71850000
18.35999989	80.70620000
18.39999989	85.19241000
18.43999989	94.18011000
18.47999989	103.15250000
18.51999989	107.65400000
18.55999989	116.64170000
18.59999989	125.61420000
18.63999989	130.11560000
18.67999989	139.10340000
18.71999989	139.10340000
18.75999989	143.58960000
18.79999989	143.58960000
18.83999989	143.58960000
18.87999989	139.10340000
18.91999989	134.60190000
18.95999988	125.61420000
18.99999988	116.64170000
19.03999988	107.65400000
19.07999988	85.19241000
19.11999988	76.20471000
19.15999988	67.21701000
19.19999988	53.74309000
19.23999988	35.78295000
19.27999988	17.80755000
19.31999988	8.81984900
19.35999988	-0.15259250
19.39999988	-13.62651000
19.43999988	-22.59896000
19.47999988	-36.08813000
19.51999988	-40.57436000
19.55999988	-54.04828000
19.59999988	-54.04828000
19.63999988	-63.03598000
19.67999988	-72.02368000
19.71999988	-76.50990000
19.75999988	-81.01138000
19.79999988	-89.98383000
19.83999988	-94.48530000
19.87999988	-103.45770000
19.91999988	-107.95920000
19.95999988	-112.44540000
19.99999988	-121.43310000
20.03999988	-125.91940000
20.07999988	-125.91940000
20.11999988	-130.42080000
20.15999988	-130.42080000
20.19999988	-130.42080000
20.23999988	-125.91940000
20.27999988	-121.43310000
20.31999988	-116.94690000
20.35999988	-107.95920000
20.39999988	-98.97152000
20.43999988	-85.49760000
20.47999988	-72.02368000
20.51999988	-58.54976000
20.55999988	-45.06058000
20.59999987	-31.58666000
20.63999987	-18.11273000
20.67999987	-4.63881300
20.71999987	8.81984900
20.75999987	22.29377000
20.79999987	35.78295000
20.83999987	44.75539000
20.87999987	53.74309000
20.91999987	62.73079000
20.95999987	71.71850000
20.99999987	76.20471000
21.03999987	85.19241000
21.07999987	103.15250000
21.11999987	116.64170000
21.15999987	125.61420000
21.19999987	134.60190000
21.23999987	134.60190000
21.27999987	130.11560000
21.31999987	125.61420000
21.35999987	116.64170000
21.39999987	112.14030000
21.43999987	107.65400000
21.47999987	107.65400000
21.51999987	121.12800000
21.55999987	125.61420000
21.59999987	125.61420000
21.63999987	125.61420000
21.67999987	121.12800000
21.71999987	112.14030000
21.75999987	94.18011000
21.79999987	80.70620000
21.83999987	62.73079000
21.87999987	49.25687000
21.91999987	35.78295000
21.95999987	17.80755000
21.99999987	8.81984900
22.03999987	-4.63881300
22.07999987	-18.11273000
22.11999987	-22.59896000
22.15999987	-36.08813000
22.19999987	-45.06058000
22.23999986	-58.54976000
22.27999986	-63.03598000
22.31999986	-76.50990000
22.35999986	-81.01138000
22.39999986	-89.98383000
22.43999986	-98.97152000
22.47999986	-107.95920000
22.51999986	-112.44540000
22.55999986	-112.44540000
22.59999986	-116.94690000
22.63999986	-116.94690000
22.67999986	-116.94690000
22.71999986	-121.43310000
22.75999986	-121.43310000
22.79999986	-125.91940000
22.83999986	-125.91940000
22.87999986	-125.91940000
22.91999986	-121.43310000
22.95999986	-116.94690000
22.99999986	-107.95920000
23.03999986	-98.97152000
23.07999986	-85.49760000
23.11999986	-72.02368000
23.15999986	-63.03598000
23.19999986	-49.56206000
23.23999986	-36.08813000
23.27999986	-22.59896000
23.31999986	-13.62651000
23.35999986	-0.15259250
23.39999986	13.32133000
23.43999986	22.29377000
23.47999986	35.78295000
23.51999986	49.25687000
23.55999986	58.24457000
23.59999986	71.71850000
23.63999986	76.20471000
23.67999986	85.19241000
23.71999986	94.18011000
23.75999986	103.15250000
23.79999986	107.65400000
23.83999986	116.64170000
23.87999985	125.61420000
23.91999985	130.11560000
23.95999985	130.11560000
23.99999985	139.10340000
24.03999985	143.58960000
24.07999985	148.07580000
24.11999985	143.58960000
24.15999985	139.10340000
24.19999985	134.60190000
24.23999985	130.11560000
24.27999985	121.12800000
24.31999985	107.65400000
24.35999985	94.18011000
24.39999985	80.70620000
24.43999985	67.21701000
24.47999985	53.74309000
24.51999985	40.26917000
24.55999985	26.79525000
24.59999985	13.32133000
24.63999985	4.33362800
24.67999985	-4.63881300
24.71999985	-18.11273000
24.75999985	-27.10044000
24.79999985	-36.08813000
24.83999985	-40.57436000
24.87999985	-54.04828000
24.91999985	-58.54976000
24.95999985	-67.52220000
24.99999985	-76.50990000
25.03999985	-81.01138000
25.07999985	-89.98383000
25.11999985	-94.48530000
25.15999985	-98.97152000
25.19999985	-107.95920000
25.23999985	-112.44540000
25.27999985	-116.94690000
25.31999985	-125.91940000
25.35999985	-125.91940000
25.39999985	-130.42080000
25.43999985	-130.42080000
25.47999985	-130.42080000
25.51999984	-130.42080000
25.55999984	-125.91940000
25.59999984	-116.94690000
25.63999984	-112.44540000
25.67999984	-98.97152000
25.71999984	-89.98383000
25.75999984	-76.50990000
25.79999984	-63.03598000
25.83999984	-54.04828000
25.87999984	-36.08813000
25.91999984	-22.59896000
25.95999984	-9.12503300
25.99999984	4.33362800
26.03999984	17.80755000
26.07999984	31.28147000
26.11999984	35.78295000
26.15999984	49.25687000
26.19999984	58.24457000
26.23999984	62.73079000
26.27999984	71.71850000
26.31999984	80.70620000
26.35999984	85.19241000
26.39999984	94.18011000
26.43999984	103.15250000
26.47999984	107.65400000
26.51999984	116.64170000
26.55999984	125.61420000
26.59999984	134.60190000
26.63999984	134.60190000
26.67999984	143.58960000
26.71999984	143.58960000
26.75999984	143.58960000
26.79999984	143.58960000
26.83999984	139.10340000
26.87999984	134.60190000
26.91999984	121.12800000
26.95999984	112.14030000
26.99999984	98.66634000
27.03999984	85.19241000
27.07999984	71.71850000
27.11999984	58.24457000
27.15999983	44.75539000
27.19999983	31.28147000
27.23999983	13.32133000
27.27999983	4.33362800
27.31999983	-4.63881300
27.35999983	-18.11273000
27.39999983	-27.10044000
27.43999983	-36.08813000
27.47999983	-45.06058000
27.51999983	-54.04828000
27.55999983	-58.54976000
27.59999983	-67.52220000
27.63999983	-72.02368000
27.67999983	-76.50990000
27.71999983	-85.49760000
27.75999983	-89.98383000
27.79999983	-94.48530000
27.83999983	-107.95920000
27.87999983	-107.95920000
27.91999983	-112.44540000
27.95999983	-121.43310000
27.99999983	-125.91940000
28.03999983	-130.42080000
28.07999983	-130.42080000
28.11999983	-130.42080000
28.15999983	-130.42080000
28.19999983	-125.91940000
28.23999983	-121.43310000
28.27999983	-112.44540000
28.31999983	-107.95920000
28.35999983	-94.48530000
28.39999983	-81.01138000
28.43999983	-72.02368000
28.47999983	-54.04828000
28.51999983	-40.57436000
28.55999983	-27.10044000
28.59999983	-13.62651000
28.63999983	-0.15259250
28.67999983	13.32133000
28.71999983	26.79525000
28.75999983	35.78295000
28.79999982	49.25687000
28.83999982	58.24457000
28.87999982	67.21701000
28.91999982	67.21701000
28.95999982	71.71850000
28.99999982	89.67863000
29.03999982	98.66634000
29.07999982	103.15250000
29.11999982	107.65400000
29.15999982	116.64170000
29.19999982	125.61420000
29.23999982	130.11560000
29.27999982	139.10340000
29.31999982	139.10340000
29.35999982	143.58960000
29.39999982	143.58960000
29.43999982	143.58960000
29.47999982	139.10340000
29.51999982	130.11560000
29.55999982	125.61420000
29.59999982	116.64170000
29.63999982	103.15250000
29.67999982	89.67863000
29.71999982	76.20471000
29.75999982	62.73079000
29.79999982	49.25687000
29.83999982	31.28147000
29.87999982	17.80755000
29.91999982	8.81984900
29.95999982	-4.63881300
29.99999982	-13.62651000
30.03999982	-27.10044000
30.07999982	-36.08813000
30.11999982	-40.57436000
30.15999982	-49.56206000
30.19999982	-58.54976000
30.23999982	-63.03598000
30.27999982	-72.02368000
30.31999982	-76.50990000
30.35999982	-85.49760000
30.39999982	-89.98383000
30.43999982	-98.97152000
30.47999981	-103.45770000
30.51999981	-107.95920000
30.55999981	-112.44540000
30.59999981	-121.43310000
30.63999981	-125.91940000
30.67999981	-125.91940000
30.71999981	-130.42080000
30.75999981	-130.42080000
30.79999981	-130.42080000
30.83999981	-125.91940000
30.87999981	-121.43310000
30.91999981	-116.94690000
30.95999981	-107.95920000
30.99999981	-94.48530000
31.03999981	-85.49760000
31.07999981	-72.02368000
31.11999981	-58.54976000
31.15999981	-40.57436000
31.19999981	-27.10044000
