Time,Channel A
(us),(mV)

0.00000000,-81.01138000
0.04000000,-81.01138000
0.08000000,-76.50990000
0.12000000,-81.01138000
0.16000000,-72.02368000
0.20000000,-72.02368000
0.24000000,-67.52220000
0.28000000,-63.03598000
0.32000000,-63.03598000
0.36000000,-54.04828000
0.40000000,-45.06058000
0.44000000,-36.08813000
0.48000000,-18.11273000
0.52000000,-4.63881300
0.56000000,13.32133000
0.60000000,31.28147000
0.64000000,44.75539000
0.68000000,62.73079000
0.72000000,76.20471000
0.76000000,89.67863000
0.80000000,103.15250000
0.83999999,116.64170000
0.87999999,125.61420000
0.91999999,134.60190000
0.95999999,139.10340000
0.99999999,143.58960000
1.03999999,143.58960000
1.07999999,139.10340000
1.11999999,130.11560000
1.15999999,121.12800000
1.19999999,116.64170000
1.23999999,107.65400000
1.27999999,98.66634000
1.31999999,98.66634000
1.35999999,89.67863000
1.39999999,80.70620000
1.43999999,76.20471000
1.47999999,71.71850000
1.51999999,62.73079000
1.55999999,53.74309000
1.59999999,49.25687000
1.63999999,35.78295000
1.67999999,31.28147000
1.71999999,17.80755000
1.75999999,-0.15259250
1.79999999,-4.63881300
1.83999999,-9.12503300
1.87999999,-27.10044000
1.91999999,-40.57436000
1.95999999,-54.04828000
1.99999999,-58.54976000
2.03999999,-63.03598000
2.07999999,-76.50990000
2.11999999,-85.49760000
2.15999999,-89.98383000
2.19999999,-94.48530000
2.23999999,-98.97152000
2.27999999,-103.45770000
2.31999999,-98.97152000
2.35999999,-98.97152000
2.39999999,-94.48530000
2.43999999,-89.98383000
2.47999998,-89.98383000
2.51999998,-89.98383000
2.55999998,-85.49760000
2.59999998,-81.01138000
2.63999998,-81.01138000
2.67999998,-81.01138000
2.71999998,-76.50990000
2.75999998,-72.02368000
2.79999998,-72.02368000
2.83999998,-67.52220000
2.87999998,-63.03598000
2.91999998,-54.04828000
2.95999998,-45.06058000
2.99999998,-36.08813000
3.03999998,-27.10044000
3.07999998,-13.62651000
3.11999998,4.33362800
3.15999998,17.80755000
3.19999998,35.78295000
3.23999998,49.25687000
3.27999998,62.73079000
3.31999998,80.70620000
3.35999998,89.67863000
3.39999998,103.15250000
3.43999998,112.14030000
3.47999998,121.12800000
3.51999998,130.11560000
3.55999998,139.10340000
3.59999998,139.10340000
3.63999998,139.10340000
3.67999998,139.10340000
3.71999998,125.61420000
3.75999998,125.61420000
3.79999998,116.64170000
3.83999998,107.65400000
3.87999998,103.15250000
3.91999998,98.66634000
3.95999998,89.67863000
3.99999998,85.19241000
4.03999998,80.70620000
4.07999998,71.71850000
4.11999997,67.21701000
4.15999997,58.24457000
4.19999997,49.25687000
4.23999997,35.78295000
4.27999997,26.79525000
4.31999997,17.80755000
4.35999997,4.33362800
4.39999997,-4.63881300
4.43999997,-18.11273000
4.47999997,-31.58666000
4.51999997,-40.57436000
4.55999997,-54.04828000
4.59999997,-58.54976000
4.63999997,-72.02368000
4.67999997,-76.50990000
4.71999997,-85.49760000
4.75999997,-89.98383000
4.79999997,-94.48530000
4.83999997,-94.48530000
4.87999997,-94.48530000
4.91999997,-94.48530000
4.95999997,-94.48530000
4.99999997,-89.98383000
5.03999997,-89.98383000
5.07999997,-89.98383000
5.11999997,-85.49760000
5.15999997,-89.98383000
5.19999997,-85.49760000
5.23999997,-81.01138000
5.27999997,-81.01138000
5.31999997,-76.50990000
5.35999997,-76.50990000
5.39999997,-72.02368000
5.43999997,-63.03598000
5.47999997,-58.54976000
5.51999997,-54.04828000
5.55999997,-45.06058000
5.59999997,-31.58666000
5.63999997,-22.59896000
5.67999997,-4.63881300
5.71999997,8.81984900
5.75999996,22.29377000
5.79999996,35.78295000
5.83999996,53.74309000
5.87999996,67.21701000
5.91999996,80.70620000
5.95999996,94.18011000
5.99999996,107.65400000
6.03999996,116.64170000
6.07999996,125.61420000
6.11999996,134.60190000
6.15999996,139.10340000
6.19999996,139.10340000
6.23999996,139.10340000
6.27999996,134.60190000
6.31999996,125.61420000
6.35999996,121.12800000
6.39999996,116.64170000
6.43999996,107.65400000
6.47999996,107.65400000
6.51999996,103.15250000
6.55999996,94.18011000
6.59999996,85.19241000
6.63999996,80.70620000
6.67999996,76.20471000
6.71999996,71.71850000
6.75999996,62.73079000
6.79999996,53.74309000
6.83999996,40.26917000
6.87999996,31.28147000
6.91999996,17.80755000
6.95999996,4.33362800
6.99999996,-4.63881300
7.03999996,-18.11273000
7.07999996,-27.10044000
7.11999996,-36.08813000
7.15999996,-54.04828000
7.19999996,-58.54976000
7.23999996,-72.02368000
7.27999996,-76.50990000
7.31999996,-85.49760000
7.35999996,-89.98383000
7.39999996,-94.48530000
7.43999995,-98.97152000
7.47999995,-103.45770000
7.51999995,-94.48530000
7.55999995,-94.48530000
7.59999995,-89.98383000
7.63999995,-85.49760000
7.67999995,-81.01138000
7.71999995,-81.01138000
7.75999995,-76.50990000
7.79999995,-76.50990000
7.83999995,-76.50990000
7.87999995,-76.50990000
7.91999995,-72.02368000
7.95999995,-72.02368000
7.99999995,-67.52220000
8.03999995,-72.02368000
8.07999995,-63.03598000
8.11999995,-58.54976000
8.15999995,-45.06058000
8.19999995,-36.08813000
8.23999995,-22.59896000
8.27999995,-9.12503300
8.31999995,8.81984900
8.35999995,22.29377000
8.39999995,40.26917000
8.43999995,53.74309000
8.47999995,71.71850000
8.51999995,85.19241000
8.55999995,98.66634000
8.59999995,112.14030000
8.63999995,121.12800000
8.67999995,125.61420000
8.71999995,134.60190000
8.75999995,139.10340000
8.79999995,143.58960000
8.83999995,143.58960000
8.87999995,139.10340000
8.91999995,130.11560000
8.95999995,125.61420000
8.99999995,116.64170000
9.03999995,107.65400000
9.07999994,103.15250000
9.11999994,94.18011000
9.15999994,89.67863000
9.19999994,85.19241000
9.23999994,80.70620000
9.27999994,71.71850000
9.31999994,67.21701000
9.35999994,58.24457000
9.39999994,53.74309000
9.43999994,44.75539000
9.47999994,35.78295000
9.51999994,17.80755000
9.55999994,8.81984900
9.59999994,-4.63881300
9.63999994,-18.11273000
9.67999994,-27.10044000
9.71999994,-40.57436000
9.75999994,-49.56206000
9.79999994,-58.54976000
9.83999994,-72.02368000
9.87999994,-76.50990000
9.91999994,-85.49760000
9.95999994,-89.98383000
9.99999994,-98.97152000
10.03999994,-103.45770000
10.07999994,-107.95920000
10.11999994,-107.95920000
10.15999994,-107.95920000
10.19999994,-107.95920000
10.23999994,-107.95920000
10.27999994,-107.95920000
10.31999994,-103.45770000
10.35999994,-94.48530000
10.39999994,-89.98383000
10.43999994,-85.49760000
10.47999994,-81.01138000
10.51999994,-76.50990000
10.55999994,-72.02368000
10.59999994,-63.03598000
10.63999994,-54.04828000
10.67999994,-49.56206000
10.71999993,-36.08813000
10.75999993,-31.58666000
10.79999993,-18.11273000
10.83999993,-13.62651000
10.87999993,-0.15259250
10.91999993,8.81984900
10.95999993,17.80755000
10.99999993,31.28147000
11.03999993,40.26917000
11.07999993,53.74309000
11.11999993,62.73079000
11.15999993,71.71850000
11.19999993,85.19241000
11.23999993,98.66634000
11.27999993,107.65400000
11.31999993,116.64170000
11.35999993,125.61420000
11.39999993,134.60190000
11.43999993,139.10340000
11.47999993,143.58960000
11.51999993,143.58960000
11.55999993,134.60190000
11.59999993,116.64170000
11.63999993,121.12800000
11.67999993,121.12800000
11.71999993,103.15250000
11.75999993,94.18011000
11.79999993,85.19241000
11.83999993,80.70620000
11.87999993,71.71850000
11.91999993,62.73079000
11.95999993,53.74309000
11.99999993,44.75539000
12.03999993,35.78295000
12.07999993,26.79525000
12.11999993,17.80755000
12.15999993,4.33362800
12.19999993,-4.63881300
12.23999993,-18.11273000
12.27999993,-27.10044000
12.31999993,-36.08813000
12.35999992,-54.04828000
12.39999992,-58.54976000
12.43999992,-67.52220000
12.47999992,-76.50990000
12.51999992,-81.01138000
12.55999992,-89.98383000
12.59999992,-94.48530000
12.63999992,-98.97152000
12.67999992,-103.45770000
12.71999992,-107.95920000
12.75999992,-112.44540000
12.79999992,-112.44540000
12.83999992,-112.44540000
12.87999992,-112.44540000
12.91999992,-112.44540000
12.95999992,-98.97152000
12.99999992,-89.98383000
13.03999992,-76.50990000
13.07999992,-76.50990000
13.11999992,-67.52220000
13.15999992,-58.54976000
13.19999992,-58.54976000
13.23999992,-54.04828000
13.27999992,-54.04828000
13.31999992,-49.56206000
13.35999992,-45.06058000
13.39999992,-40.57436000
13.43999992,-36.08813000
13.47999992,-27.10044000
13.51999992,-18.11273000
13.55999992,-4.63881300
13.59999992,13.32133000
13.63999992,26.79525000
13.67999992,44.75539000
13.71999992,62.73079000
13.75999992,76.20471000
13.79999992,89.67863000
13.83999992,107.65400000
13.87999992,121.12800000
13.91999992,134.60190000
13.95999992,143.58960000
13.99999991,143.58960000
14.03999991,148.07580000
14.07999991,143.58960000
14.11999991,134.60190000
14.15999991,121.12800000
14.19999991,116.64170000
14.23999991,107.65400000
14.27999991,103.15250000
14.31999991,94.18011000
14.35999991,89.67863000
14.39999991,80.70620000
14.43999991,76.20471000
14.47999991,71.71850000
14.51999991,67.21701000
14.55999991,58.24457000
14.59999991,49.25687000
14.63999991,35.78295000
14.67999991,26.79525000
14.71999991,17.80755000
14.75999991,4.33362800
14.79999991,-4.63881300
14.83999991,-13.62651000
14.87999991,-27.10044000
14.91999991,-36.08813000
14.95999991,-49.56206000
14.99999991,-58.54976000
15.03999991,-67.52220000
15.07999991,-76.50990000
15.11999991,-81.01138000
15.15999991,-85.49760000
15.19999991,-85.49760000
15.23999991,-81.01138000
15.27999991,-76.50990000
15.31999991,-76.50990000
15.35999991,-81.01138000
15.39999991,-94.48530000
15.43999991,-107.95920000
15.47999991,-116.94690000
15.51999991,-125.91940000
15.55999991,-130.42080000
15.59999991,-125.91940000
15.63999990,-116.94690000
15.67999990,-103.45770000
15.71999990,-89.98383000
15.75999990,-76.50990000
15.79999990,-63.03598000
15.83999990,-54.04828000
15.87999990,-45.06058000
15.91999990,-40.57436000
15.95999990,-36.08813000
15.99999990,-31.58666000
16.03999990,-18.11273000
16.07999990,-9.12503300
16.11999990,4.33362800
16.15999990,17.80755000
16.19999990,35.78295000
16.23999990,49.25687000
16.27999990,62.73079000
16.31999990,71.71850000
16.35999990,85.19241000
16.39999990,94.18011000
16.43999990,103.15250000
16.47999990,103.15250000
16.51999990,112.14030000
16.55999990,121.12800000
16.59999990,125.61420000
16.63999990,125.61420000
16.67999990,130.11560000
16.71999990,125.61420000
16.75999990,125.61420000
16.79999990,125.61420000
16.83999990,121.12800000
16.87999990,116.64170000
16.91999990,107.65400000
16.95999990,103.15250000
16.99999990,89.67863000
17.03999990,85.19241000
17.07999990,71.71850000
17.11999990,67.21701000
17.15999990,62.73079000
17.19999990,53.74309000
17.23999990,44.75539000
17.27999989,35.78295000
17.31999989,17.80755000
17.35999989,4.33362800
17.39999989,-9.12503300
17.43999989,-22.59896000
17.47999989,-36.08813000
17.51999989,-49.56206000
17.55999989,-54.04828000
17.59999989,-63.03598000
17.63999989,-72.02368000
17.67999989,-72.02368000
17.71999989,-76.50990000
17.75999989,-85.49760000
17.79999989,-89.98383000
17.83999989,-94.48530000
17.87999989,-94.48530000
17.91999989,-98.97152000
17.95999989,-103.45770000
17.99999989,-107.95920000
18.03999989,-103.45770000
18.07999989,-103.45770000
18.11999989,-94.48530000
18.15999989,-89.98383000
18.19999989,-81.01138000
18.23999989,-76.50990000
18.27999989,-72.02368000
18.31999989,-67.52220000
18.35999989,-63.03598000
18.39999989,-67.52220000
18.43999989,-67.52220000
18.47999989,-63.03598000
18.51999989,-63.03598000
18.55999989,-58.54976000
18.59999989,-45.06058000
18.63999989,-36.08813000
18.67999989,-22.59896000
18.71999989,-9.12503300
18.75999989,8.81984900
18.79999989,26.79525000
18.83999989,44.75539000
18.87999989,58.24457000
18.91999989,71.71850000
18.95999988,85.19241000
18.99999988,98.66634000
19.03999988,107.65400000
19.07999988,121.12800000
19.11999988,125.61420000
19.15999988,130.11560000
19.19999988,139.10340000
19.23999988,139.10340000
19.27999988,134.60190000
19.31999988,134.60190000
19.35999988,125.61420000
19.39999988,121.12800000
19.43999988,112.14030000
19.47999988,103.15250000
19.51999988,94.18011000
19.55999988,89.67863000
19.59999988,85.19241000
19.63999988,76.20471000
19.67999988,71.71850000
19.71999988,62.73079000
19.75999988,53.74309000
19.79999988,49.25687000
19.83999988,35.78295000
19.87999988,31.28147000
19.91999988,17.80755000
19.95999988,8.81984900
19.99999988,-0.15259250
20.03999988,-13.62651000
20.07999988,-22.59896000
20.11999988,-36.08813000
20.15999988,-45.06058000
20.19999988,-54.04828000
20.23999988,-67.52220000
20.27999988,-72.02368000
20.31999988,-81.01138000
20.35999988,-89.98383000
20.39999988,-98.97152000
20.43999988,-103.45770000
20.47999988,-107.95920000
20.51999988,-112.44540000
20.55999988,-112.44540000
20.59999987,-112.44540000
20.63999987,-112.44540000
20.67999987,-103.45770000
20.71999987,-94.48530000
20.75999987,-89.98383000
20.79999987,-81.01138000
20.83999987,-76.50990000
20.87999987,-72.02368000
20.91999987,-72.02368000
20.95999987,-67.52220000
20.99999987,-63.03598000
21.03999987,-58.54976000
21.07999987,-54.04828000
21.11999987,-54.04828000
21.15999987,-49.56206000
21.19999987,-45.06058000
21.23999987,-36.08813000
21.27999987,-27.10044000
21.31999987,-13.62651000
21.35999987,-0.15259250
21.39999987,17.80755000
21.43999987,22.29377000
21.47999987,49.25687000
21.51999987,71.71850000
21.55999987,80.70620000
21.59999987,89.67863000
21.63999987,107.65400000
21.67999987,125.61420000
21.71999987,134.60190000
21.75999987,143.58960000
21.79999987,148.07580000
21.83999987,148.07580000
21.87999987,143.58960000
21.91999987,134.60190000
21.95999987,125.61420000
21.99999987,116.64170000
22.03999987,107.65400000
22.07999987,98.66634000
22.11999987,89.67863000
22.15999987,85.19241000
22.19999987,80.70620000
22.23999986,71.71850000
22.27999986,71.71850000
22.31999986,62.73079000
22.35999986,58.24457000
22.39999986,49.25687000
22.43999986,40.26917000
22.47999986,31.28147000
22.51999986,17.80755000
22.55999986,4.33362800
22.59999986,-0.15259250
22.63999986,-18.11273000
22.67999986,-27.10044000
22.71999986,-36.08813000
22.75999986,-49.56206000
22.79999986,-58.54976000
22.83999986,-67.52220000
22.87999986,-76.50990000
22.91999986,-85.49760000
22.95999986,-89.98383000
22.99999986,-98.97152000
23.03999986,-103.45770000
23.07999986,-107.95920000
23.11999986,-107.95920000
23.15999986,-107.95920000
23.19999986,-107.95920000
23.23999986,-103.45770000
23.27999986,-94.48530000
23.31999986,-89.98383000
23.35999986,-85.49760000
23.39999986,-81.01138000
23.43999986,-76.50990000
23.47999986,-76.50990000
23.51999986,-72.02368000
23.55999986,-72.02368000
23.59999986,-76.50990000
23.63999986,-72.02368000
23.67999986,-72.02368000
23.71999986,-72.02368000
23.75999986,-63.03598000
23.79999986,-54.04828000
23.83999986,-40.57436000
23.87999985,-27.10044000
23.91999985,-9.12503300
23.95999985,8.81984900
23.99999985,26.79525000
24.03999985,44.75539000
24.07999985,62.73079000
24.11999985,76.20471000
24.15999985,89.67863000
24.19999985,103.15250000
24.23999985,112.14030000
24.27999985,121.12800000
24.31999985,125.61420000
24.35999985,134.60190000
24.39999985,134.60190000
24.43999985,139.10340000
24.47999985,139.10340000
24.51999985,130.11560000
24.55999985,125.61420000
24.59999985,121.12800000
24.63999985,107.65400000
24.67999985,103.15250000
24.71999985,94.18011000
24.75999985,89.67863000
24.79999985,80.70620000
24.83999985,71.71850000
24.87999985,67.21701000
24.91999985,58.24457000
24.95999985,53.74309000
24.99999985,44.75539000
25.03999985,35.78295000
25.07999985,31.28147000
25.11999985,17.80755000
25.15999985,8.81984900
25.19999985,-0.15259250
25.23999985,-9.12503300
25.27999985,-22.59896000
25.31999985,-31.58666000
25.35999985,-45.06058000
25.39999985,-54.04828000
25.43999985,-67.52220000
25.47999985,-76.50990000
25.51999984,-85.49760000
25.55999984,-94.48530000
25.59999984,-103.45770000
25.63999984,-107.95920000
25.67999984,-107.95920000
25.71999984,-112.44540000
25.75999984,-107.95920000
25.79999984,-98.97152000
25.83999984,-94.48530000
25.87999984,-94.48530000
25.91999984,-89.98383000
25.95999984,-85.49760000
25.99999984,-85.49760000
26.03999984,-85.49760000
26.07999984,-81.01138000
26.11999984,-76.50990000
26.15999984,-81.01138000
26.19999984,-76.50990000
26.23999984,-76.50990000
26.27999984,-76.50990000
26.31999984,-72.02368000
26.35999984,-63.03598000
26.39999984,-45.06058000
26.43999984,-36.08813000
26.47999984,-18.11273000
26.51999984,-4.63881300
26.55999984,13.32133000
26.59999984,31.28147000
26.63999984,49.25687000
26.67999984,67.21701000
26.71999984,80.70620000
26.75999984,89.67863000
26.79999984,103.15250000
26.83999984,112.14030000
26.87999984,121.12800000
26.91999984,130.11560000
26.95999984,134.60190000
26.99999984,139.10340000
27.03999984,143.58960000
27.07999984,139.10340000
27.11999984,130.11560000
27.15999983,125.61420000
27.19999983,116.64170000
27.23999983,107.65400000
27.27999983,103.15250000
27.31999983,98.66634000
27.35999983,89.67863000
27.39999983,85.19241000
27.43999983,80.70620000
27.47999983,71.71850000
27.51999983,71.71850000
27.55999983,62.73079000
27.59999983,53.74309000
27.63999983,44.75539000
27.67999983,31.28147000
27.71999983,17.80755000
27.75999983,8.81984900
27.79999983,-0.15259250
27.83999983,-13.62651000
27.87999983,-27.10044000
27.91999983,-40.57436000
27.95999983,-49.56206000
27.99999983,-58.54976000
28.03999983,-72.02368000
28.07999983,-81.01138000
28.11999983,-89.98383000
28.15999983,-94.48530000
28.19999983,-98.97152000
28.23999983,-103.45770000
28.27999983,-107.95920000
28.31999983,-112.44540000
28.35999983,-107.95920000
28.39999983,-112.44540000
28.43999983,-103.45770000
28.47999983,-94.48530000
28.51999983,-89.98383000
28.55999983,-85.49760000
28.59999983,-76.50990000
28.63999983,-72.02368000
28.67999983,-76.50990000
28.71999983,-72.02368000
28.75999983,-76.50990000
28.79999982,-67.52220000
28.83999982,-72.02368000
28.87999982,-72.02368000
28.91999982,-67.52220000
28.95999982,-58.54976000
28.99999982,-54.04828000
29.03999982,-40.57436000
29.07999982,-22.59896000
29.11999982,-4.63881300
29.15999982,13.32133000
29.19999982,31.28147000
29.23999982,49.25687000
29.27999982,62.73079000
29.31999982,76.20471000
29.35999982,89.67863000
29.39999982,107.65400000
29.43999982,112.14030000
29.47999982,125.61420000
29.51999982,130.11560000
29.55999982,139.10340000
29.59999982,139.10340000
29.63999982,139.10340000
29.67999982,139.10340000
29.71999982,134.60190000
29.75999982,125.61420000
29.79999982,116.64170000
29.83999982,112.14030000
29.87999982,107.65400000
29.91999982,103.15250000
29.95999982,94.18011000
29.99999982,89.67863000
30.03999982,80.70620000
30.07999982,71.71850000
30.11999982,67.21701000
30.15999982,58.24457000
30.19999982,49.25687000
30.23999982,40.26917000
30.27999982,31.28147000
30.31999982,22.29377000
30.35999982,8.81984900
30.39999982,-0.15259250
30.43999982,-13.62651000
30.47999981,-22.59896000
30.51999981,-36.08813000
30.55999981,-45.06058000
30.59999981,-58.54976000
30.63999981,-67.52220000
30.67999981,-76.50990000
30.71999981,-89.98383000
30.75999981,-94.48530000
30.79999981,-98.97152000
30.83999981,-107.95920000
30.87999981,-112.44540000
30.91999981,-112.44540000
30.95999981,-116.94690000
30.99999981,-116.94690000
31.03999981,-112.44540000
31.07999981,-112.44540000
31.11999981,-98.97152000
31.15999981,-89.98383000
31.19999981,-76.50990000
31.23999981,-76.50990000
31.27999981,-81.01138000
31.31999981,-72.02368000
31.35999981,-63.03598000
