Time	Channel A
(us)	(mV)

0.00000000	26.79525000
0.04000000	35.78295000
0.08000000	44.75539000
0.12000000	49.25687000
0.16000000	58.24457000
0.20000000	67.21701000
0.24000000	80.70620000
0.28000000	98.66634000
0.32000000	107.65400000
0.36000000	116.64170000
0.40000000	116.64170000
0.44000000	116.64170000
0.48000000	116.64170000
0.52000000	107.65400000
0.56000000	103.15250000
0.60000000	94.18011000
0.64000000	85.19241000
0.68000000	71.71850000
0.72000000	62.73079000
0.76000000	53.74309000
0.80000000	40.26917000
0.83999999	31.28147000
0.87999999	22.29377000
0.91999999	13.32133000
0.95999999	-0.15259250
0.99999999	-9.12503300
1.03999999	-18.11273000
1.07999999	-36.08813000
1.11999999	-49.56206000
1.15999999	-63.03598000
1.19999999	-76.50990000
1.23999999	-85.49760000
1.27999999	-94.48530000
1.31999999	-94.48530000
1.35999999	-89.98383000
1.39999999	-81.01138000
1.43999999	-76.50990000
1.47999999	-72.02368000
1.51999999	-67.52220000
1.55999999	-63.03598000
1.59999999	-58.54976000
1.63999999	-54.04828000
1.67999999	-54.04828000
1.71999999	-54.04828000
1.75999999	-54.04828000
1.79999999	-54.04828000
1.83999999	-54.04828000
1.87999999	-49.56206000
1.91999999	-45.06058000
1.95999999	-40.57436000
1.99999999	-36.08813000
2.03999999	-27.10044000
2.07999999	-22.59896000
2.11999999	-13.62651000
2.15999999	-4.63881300
2.19999999	-0.15259250
2.23999999	8.81984900
2.27999999	17.80755000
2.31999999	26.79525000
2.35999999	35.78295000
2.39999999	44.75539000
2.43999999	53.74309000
2.47999998	67.21701000
2.51999998	76.20471000
2.55999998	94.18011000
2.59999998	103.15250000
2.63999998	112.14030000
2.67999998	116.64170000
2.71999998	121.12800000
2.75999998	121.12800000
2.79999998	116.64170000
2.83999998	107.65400000
2.87999998	98.66634000
2.91999998	89.67863000
2.95999998	80.70620000
2.99999998	71.71850000
3.03999998	58.24457000
3.07999998	49.25687000
3.11999998	35.78295000
3.15999998	26.79525000
3.19999998	17.80755000
3.23999998	4.33362800
3.27999998	-4.63881300
3.31999998	-18.11273000
3.35999998	-27.10044000
3.39999998	-45.06058000
3.43999998	-58.54976000
3.47999998	-76.50990000
3.51999998	-81.01138000
3.55999998	-89.98383000
3.59999998	-94.48530000
3.63999998	-89.98383000
3.67999998	-89.98383000
3.71999998	-81.01138000
3.75999998	-76.50990000
3.79999998	-72.02368000
3.83999998	-67.52220000
3.87999998	-58.54976000
3.91999998	-58.54976000
3.95999998	-54.04828000
3.99999998	-54.04828000
4.03999998	-54.04828000
4.07999998	-54.04828000
4.11999997	-54.04828000
4.15999997	-54.04828000
4.19999997	-49.56206000
4.23999997	-45.06058000
4.27999997	-36.08813000
4.31999997	-31.58666000
4.35999997	-22.59896000
4.39999997	-13.62651000
4.43999997	-4.63881300
4.47999997	-0.15259250
4.51999997	8.81984900
4.55999997	17.80755000
4.59999997	26.79525000
4.63999997	35.78295000
4.67999997	40.26917000
4.71999997	49.25687000
4.75999997	58.24457000
4.79999997	67.21701000
4.83999997	80.70620000
4.87999997	94.18011000
4.91999997	107.65400000
4.95999997	112.14030000
4.99999997	116.64170000
5.03999997	116.64170000
5.07999997	116.64170000
5.11999997	107.65400000
5.15999997	103.15250000
5.19999997	94.18011000
5.23999997	85.19241000
5.27999997	71.71850000
5.31999997	62.73079000
5.35999997	49.25687000
5.39999997	35.78295000
5.43999997	31.28147000
5.47999997	17.80755000
5.51999997	13.32133000
5.55999997	-0.15259250
5.59999997	-4.63881300
5.63999997	-22.59896000
5.67999997	-36.08813000
5.71999997	-54.04828000
5.75999996	-63.03598000
5.79999996	-76.50990000
5.83999996	-85.49760000
5.87999996	-89.98383000
5.91999996	-89.98383000
5.95999996	-89.98383000
5.99999996	-81.01138000
6.03999996	-81.01138000
6.07999996	-72.02368000
6.11999996	-67.52220000
6.15999996	-63.03598000
6.19999996	-54.04828000
6.23999996	-54.04828000
6.27999996	-63.03598000
6.31999996	-58.54976000
6.35999996	-45.06058000
6.39999996	-45.06058000
6.43999996	-54.04828000
6.47999996	-54.04828000
6.51999996	-45.06058000
6.55999996	-40.57436000
6.59999996	-36.08813000
6.63999996	-31.58666000
6.67999996	-22.59896000
6.71999996	-18.11273000
6.75999996	-9.12503300
6.79999996	-0.15259250
6.83999996	13.32133000
6.87999996	17.80755000
6.91999996	26.79525000
6.95999996	35.78295000
6.99999996	44.75539000
7.03999996	53.74309000
7.07999996	67.21701000
7.11999996	71.71850000
7.15999996	85.19241000
7.19999996	103.15250000
7.23999996	112.14030000
7.27999996	121.12800000
7.31999996	121.12800000
7.35999996	116.64170000
7.39999996	112.14030000
7.43999995	107.65400000
7.47999995	103.15250000
7.51999995	89.67863000
7.55999995	80.70620000
7.59999995	67.21701000
7.63999995	58.24457000
7.67999995	44.75539000
7.71999995	35.78295000
7.75999995	26.79525000
7.79999995	17.80755000
7.83999995	8.81984900
7.87999995	-4.63881300
7.91999995	-18.11273000
7.95999995	-31.58666000
7.99999995	-40.57436000
8.03999995	-58.54976000
8.07999995	-72.02368000
8.11999995	-81.01138000
8.15999995	-89.98383000
8.19999995	-94.48530000
8.23999995	-94.48530000
8.27999995	-89.98383000
8.31999995	-81.01138000
8.35999995	-76.50990000
8.39999995	-72.02368000
8.43999995	-63.03598000
8.47999995	-58.54976000
8.51999995	-58.54976000
8.55999995	-58.54976000
8.59999995	-54.04828000
8.63999995	-54.04828000
8.67999995	-54.04828000
8.71999995	-54.04828000
8.75999995	-54.04828000
8.79999995	-49.56206000
8.83999995	-45.06058000
8.87999995	-36.08813000
8.91999995	-31.58666000
8.95999995	-22.59896000
8.99999995	-18.11273000
9.03999995	-9.12503300
9.07999994	-0.15259250
9.11999994	8.81984900
9.15999994	17.80755000
9.19999994	26.79525000
9.23999994	35.78295000
9.27999994	35.78295000
9.31999994	49.25687000
9.35999994	58.24457000
9.39999994	67.21701000
9.43999994	76.20471000
9.47999994	89.67863000
9.51999994	107.65400000
9.55999994	112.14030000
9.59999994	116.64170000
9.63999994	116.64170000
9.67999994	116.64170000
9.71999994	107.65400000
9.75999994	107.65400000
9.79999994	94.18011000
9.83999994	85.19241000
9.87999994	71.71850000
9.91999994	62.73079000
9.95999994	49.25687000
9.99999994	40.26917000
10.03999994	31.28147000
10.07999994	17.80755000
10.11999994	8.81984900
10.15999994	-0.15259250
10.19999994	-9.12503300
10.23999994	-22.59896000
10.27999994	-36.08813000
10.31999994	-54.04828000
10.35999994	-67.52220000
10.39999994	-81.01138000
10.43999994	-89.98383000
10.47999994	-94.48530000
10.51999994	-94.48530000
10.55999994	-94.48530000
10.59999994	-89.98383000
10.63999994	-81.01138000
10.67999994	-81.01138000
10.71999993	-72.02368000
10.75999993	-67.52220000
10.79999993	-63.03598000
10.83999993	-63.03598000
10.87999993	-58.54976000
10.91999993	-58.54976000
10.95999993	-54.04828000
10.99999993	-54.04828000
11.03999993	-54.04828000
11.07999993	-49.56206000
11.11999993	-49.56206000
11.15999993	-45.06058000
11.19999993	-36.08813000
11.23999993	-27.10044000
11.27999993	-18.11273000
11.31999993	-9.12503300
11.35999993	-4.63881300
11.39999993	-0.15259250
11.43999993	8.81984900
11.47999993	17.80755000
11.51999993	26.79525000
11.55999993	31.28147000
11.59999993	40.26917000
11.63999993	49.25687000
11.67999993	58.24457000
11.71999993	67.21701000
11.75999993	80.70620000
11.79999993	94.18011000
11.83999993	107.65400000
11.87999993	116.64170000
11.91999993	116.64170000
11.95999993	116.64170000
11.99999993	116.64170000
12.03999993	107.65400000
12.07999993	98.66634000
12.11999993	89.67863000
12.15999993	80.70620000
12.19999993	71.71850000
12.23999993	58.24457000
12.27999993	49.25687000
12.31999993	35.78295000
12.35999992	31.28147000
12.39999992	17.80755000
12.43999992	8.81984900
12.47999992	-0.15259250
12.51999992	-9.12503300
12.55999992	-22.59896000
12.59999992	-36.08813000
12.63999992	-49.56206000
12.67999992	-63.03598000
12.71999992	-76.50990000
12.75999992	-89.98383000
12.79999992	-94.48530000
12.83999992	-94.48530000
12.87999992	-89.98383000
12.91999992	-89.98383000
12.95999992	-81.01138000
12.99999992	-81.01138000
13.03999992	-72.02368000
13.07999992	-63.03598000
13.11999992	-58.54976000
13.15999992	-58.54976000
13.19999992	-54.04828000
13.23999992	-54.04828000
13.27999992	-54.04828000
13.31999992	-54.04828000
13.35999992	-54.04828000
13.39999992	-49.56206000
13.43999992	-45.06058000
13.47999992	-40.57436000
13.51999992	-36.08813000
13.55999992	-27.10044000
13.59999992	-22.59896000
13.63999992	-13.62651000
13.67999992	-4.63881300
13.71999992	-0.15259250
13.75999992	8.81984900
13.79999992	17.80755000
13.83999992	26.79525000
13.87999992	31.28147000
13.91999992	40.26917000
13.95999992	49.25687000
13.99999991	58.24457000
14.03999991	71.71850000
14.07999991	85.19241000
14.11999991	98.66634000
14.15999991	112.14030000
14.19999991	116.64170000
14.23999991	121.12800000
14.27999991	121.12800000
14.31999991	116.64170000
14.35999991	107.65400000
14.39999991	98.66634000
14.43999991	89.67863000
14.47999991	80.70620000
14.51999991	71.71850000
14.55999991	58.24457000
14.59999991	44.75539000
14.63999991	35.78295000
14.67999991	26.79525000
14.71999991	17.80755000
14.75999991	4.33362800
14.79999991	-4.63881300
14.83999991	-13.62651000
14.87999991	-27.10044000
14.91999991	-40.57436000
14.95999991	-54.04828000
14.99999991	-72.02368000
15.03999991	-81.01138000
15.07999991	-89.98383000
15.11999991	-94.48530000
15.15999991	-94.48530000
15.19999991	-89.98383000
15.23999991	-85.49760000
15.27999991	-76.50990000
15.31999991	-72.02368000
15.35999991	-63.03598000
15.39999991	-63.03598000
15.43999991	-58.54976000
15.47999991	-54.04828000
15.51999991	-54.04828000
15.55999991	-54.04828000
15.59999991	-54.04828000
15.63999990	-54.04828000
15.67999990	-49.56206000
15.71999990	-49.56206000
15.75999990	-45.06058000
15.79999990	-40.57436000
15.83999990	-36.08813000
15.87999990	-27.10044000
15.91999990	-18.11273000
15.95999990	-9.12503300
15.99999990	-0.15259250
16.03999990	4.33362800
16.07999990	17.80755000
16.11999990	13.32133000
16.15999990	22.29377000
16.19999990	44.75539000
16.23999990	53.74309000
16.27999990	53.74309000
16.31999990	62.73079000
16.35999990	71.71850000
16.39999990	89.67863000
16.43999990	103.15250000
16.47999990	112.14030000
16.51999990	116.64170000
16.55999990	121.12800000
16.59999990	116.64170000
16.63999990	112.14030000
16.67999990	103.15250000
16.71999990	94.18011000
16.75999990	80.70620000
16.79999990	71.71850000
16.83999990	62.73079000
16.87999990	53.74309000
16.91999990	40.26917000
16.95999990	31.28147000
16.99999990	22.29377000
17.03999990	13.32133000
17.07999990	-0.15259250
17.11999990	-4.63881300
17.15999990	-18.11273000
17.19999990	-36.08813000
17.23999990	-45.06058000
17.27999989	-63.03598000
17.31999989	-72.02368000
17.35999989	-85.49760000
17.39999989	-89.98383000
17.43999989	-89.98383000
17.47999989	-85.49760000
17.51999989	-81.01138000
17.55999989	-72.02368000
17.59999989	-67.52220000
17.63999989	-63.03598000
17.67999989	-58.54976000
17.71999989	-58.54976000
17.75999989	-54.04828000
17.79999989	-54.04828000
17.83999989	-49.56206000
17.87999989	-54.04828000
17.91999989	-54.04828000
17.95999989	-54.04828000
17.99999989	-49.56206000
18.03999989	-45.06058000
18.07999989	-40.57436000
18.11999989	-36.08813000
18.15999989	-31.58666000
18.19999989	-22.59896000
18.23999989	-13.62651000
18.27999989	-4.63881300
18.31999989	-0.15259250
18.35999989	8.81984900
18.39999989	17.80755000
18.43999989	31.28147000
18.47999989	35.78295000
18.51999989	44.75539000
18.55999989	53.74309000
18.59999989	67.21701000
18.63999989	76.20471000
18.67999989	85.19241000
18.71999989	103.15250000
18.75999989	112.14030000
18.79999989	116.64170000
18.83999989	116.64170000
18.87999989	116.64170000
18.91999989	112.14030000
18.95999988	107.65400000
18.99999988	98.66634000
19.03999988	89.67863000
19.07999988	80.70620000
19.11999988	67.21701000
19.15999988	53.74309000
19.19999988	44.75539000
19.23999988	35.78295000
19.27999988	26.79525000
19.31999988	13.32133000
19.35999988	4.33362800
19.39999988	-9.12503300
19.43999988	-18.11273000
19.47999988	-31.58666000
19.51999988	-49.56206000
19.55999988	-63.03598000
19.59999988	-76.50990000
19.63999988	-85.49760000
19.67999988	-89.98383000
19.71999988	-89.98383000
19.75999988	-94.48530000
19.79999988	-89.98383000
19.83999988	-98.97152000
19.87999988	-112.44540000
19.91999988	-103.45770000
19.95999988	-81.01138000
19.99999988	-63.03598000
20.03999988	-54.04828000
20.07999988	-40.57436000
20.11999988	-18.11273000
20.15999988	-0.15259250
20.19999988	-0.15259250
20.23999988	-22.59896000
20.27999988	-36.08813000
20.31999988	-40.57436000
20.35999988	-40.57436000
20.39999988	-49.56206000
20.43999988	-54.04828000
20.47999988	-45.06058000
20.51999988	-27.10044000
20.55999988	-9.12503300
20.59999987	-0.15259250
20.63999987	-0.15259250
20.67999987	8.81984900
20.71999987	22.29377000
20.75999987	31.28147000
20.79999987	35.78295000
20.83999987	44.75539000
20.87999987	53.74309000
20.91999987	71.71850000
20.95999987	80.70620000
20.99999987	94.18011000
21.03999987	112.14030000
21.07999987	121.12800000
21.11999987	125.61420000
21.15999987	134.60190000
21.19999987	130.11560000
21.23999987	116.64170000
21.27999987	103.15250000
21.31999987	94.18011000
21.35999987	80.70620000
21.39999987	62.73079000
21.43999987	44.75539000
21.47999987	35.78295000
21.51999987	22.29377000
21.55999987	17.80755000
21.59999987	13.32133000
21.63999987	-0.15259250
21.67999987	-4.63881300
21.71999987	-13.62651000
21.75999987	-27.10044000
21.79999987	-40.57436000
21.83999987	-58.54976000
21.87999987	-72.02368000
21.91999987	-81.01138000
21.95999987	-85.49760000
21.99999987	-89.98383000
22.03999987	-85.49760000
22.07999987	-76.50990000
22.11999987	-67.52220000
22.15999987	-63.03598000
22.19999987	-58.54976000
22.23999986	-58.54976000
22.27999986	-58.54976000
22.31999986	-58.54976000
22.35999986	-58.54976000
22.39999986	-58.54976000
22.43999986	-54.04828000
22.47999986	-58.54976000
22.51999986	-63.03598000
22.55999986	-58.54976000
22.59999986	-54.04828000
22.63999986	-45.06058000
22.67999986	-40.57436000
22.71999986	-36.08813000
22.75999986	-22.59896000
22.79999986	-9.12503300
22.83999986	-4.63881300
22.87999986	-0.15259250
22.91999986	13.32133000
22.95999986	17.80755000
22.99999986	26.79525000
23.03999986	35.78295000
23.07999986	44.75539000
23.11999986	49.25687000
23.15999986	62.73079000
23.19999986	71.71850000
23.23999986	80.70620000
23.27999986	89.67863000
23.31999986	103.15250000
23.35999986	107.65400000
23.39999986	112.14030000
23.43999986	116.64170000
23.47999986	112.14030000
23.51999986	112.14030000
23.55999986	107.65400000
23.59999986	94.18011000
23.63999986	85.19241000
23.67999986	76.20471000
23.71999986	62.73079000
23.75999986	53.74309000
23.79999986	44.75539000
23.83999986	31.28147000
23.87999985	17.80755000
23.91999985	8.81984900
23.95999985	-0.15259250
23.99999985	-9.12503300
24.03999985	-27.10044000
24.07999985	-36.08813000
24.11999985	-54.04828000
24.15999985	-67.52220000
24.19999985	-81.01138000
24.23999985	-89.98383000
24.27999985	-89.98383000
24.31999985	-89.98383000
24.35999985	-89.98383000
24.39999985	-85.49760000
24.43999985	-81.01138000
24.47999985	-76.50990000
24.51999985	-63.03598000
24.55999985	-58.54976000
24.59999985	-54.04828000
24.63999985	-49.56206000
24.67999985	-49.56206000
24.71999985	-49.56206000
24.75999985	-49.56206000
24.79999985	-45.06058000
24.83999985	-45.06058000
24.87999985	-45.06058000
24.91999985	-45.06058000
24.95999985	-40.57436000
24.99999985	-36.08813000
25.03999985	-27.10044000
25.07999985	-18.11273000
25.11999985	-13.62651000
25.15999985	-0.15259250
25.19999985	4.33362800
25.23999985	13.32133000
25.27999985	26.79525000
25.31999985	35.78295000
25.35999985	40.26917000
25.39999985	49.25687000
25.43999985	58.24457000
25.47999985	71.71850000
25.51999984	80.70620000
25.55999984	89.67863000
25.59999984	103.15250000
25.63999984	112.14030000
25.67999984	121.12800000
25.71999984	121.12800000
25.75999984	121.12800000
25.79999984	116.64170000
25.83999984	107.65400000
25.87999984	98.66634000
25.91999984	89.67863000
25.95999984	67.21701000
25.99999984	49.25687000
26.03999984	53.74309000
26.07999984	49.25687000
26.11999984	31.28147000
26.15999984	13.32133000
26.19999984	4.33362800
26.23999984	-0.15259250
26.27999984	-13.62651000
26.31999984	-27.10044000
26.35999984	-36.08813000
26.39999984	-54.04828000
26.43999984	-67.52220000
26.47999984	-81.01138000
26.51999984	-89.98383000
26.55999984	-89.98383000
26.59999984	-89.98383000
26.63999984	-89.98383000
26.67999984	-76.50990000
26.71999984	-72.02368000
26.75999984	-67.52220000
26.79999984	-63.03598000
26.83999984	-58.54976000
26.87999984	-54.04828000
26.91999984	-54.04828000
26.95999984	-54.04828000
26.99999984	-54.04828000
27.03999984	-54.04828000
27.07999984	-54.04828000
27.11999984	-54.04828000
27.15999983	-49.56206000
27.19999983	-40.57436000
27.23999983	-40.57436000
27.27999983	-31.58666000
27.31999983	-18.11273000
27.35999983	-18.11273000
27.39999983	-9.12503300
27.43999983	-0.15259250
27.47999983	4.33362800
27.51999983	13.32133000
27.55999983	22.29377000
27.59999983	31.28147000
27.63999983	35.78295000
27.67999983	44.75539000
27.71999983	53.74309000
27.75999983	71.71850000
27.79999983	76.20471000
27.83999983	94.18011000
27.87999983	107.65400000
27.91999983	116.64170000
27.95999983	121.12800000
27.99999983	121.12800000
28.03999983	121.12800000
28.07999983	112.14030000
28.11999983	107.65400000
28.15999983	94.18011000
28.19999983	85.19241000
28.23999983	71.71850000
28.27999983	62.73079000
28.31999983	49.25687000
28.35999983	40.26917000
28.39999983	26.79525000
28.43999983	17.80755000
28.47999983	8.81984900
28.51999983	-0.15259250
28.55999983	-9.12503300
28.59999983	-22.59896000
28.63999983	-36.08813000
28.67999983	-54.04828000
28.71999983	-67.52220000
28.75999983	-76.50990000
28.79999982	-89.98383000
28.83999982	-89.98383000
28.87999982	-89.98383000
28.91999982	-89.98383000
28.95999982	-85.49760000
28.99999982	-76.50990000
29.03999982	-72.02368000
29.07999982	-67.52220000
29.11999982	-63.03598000
29.15999982	-58.54976000
29.19999982	-54.04828000
29.23999982	-54.04828000
29.27999982	-54.04828000
29.31999982	-54.04828000
29.35999982	-54.04828000
29.39999982	-54.04828000
29.43999982	-49.56206000
29.47999982	-45.06058000
29.51999982	-40.57436000
29.55999982	-31.58666000
29.59999982	-27.10044000
29.63999982	-18.11273000
29.67999982	-9.12503300
29.71999982	-0.15259250
29.75999982	8.81984900
29.79999982	13.32133000
29.83999982	26.79525000
29.87999982	31.28147000
29.91999982	40.26917000
29.95999982	49.25687000
29.99999982	58.24457000
30.03999982	67.21701000
30.07999982	76.20471000
30.11999982	89.67863000
30.15999982	107.65400000
30.19999982	116.64170000
30.23999982	121.12800000
30.27999982	121.12800000
30.31999982	116.64170000
30.35999982	112.14030000
30.39999982	107.65400000
30.43999982	94.18011000
30.47999981	85.19241000
30.51999981	76.20471000
30.55999981	62.73079000
30.59999981	53.74309000
30.63999981	40.26917000
30.67999981	31.28147000
30.71999981	17.80755000
30.75999981	8.81984900
30.79999981	-0.15259250
30.83999981	-13.62651000
30.87999981	-22.59896000
30.91999981	-36.08813000
30.95999981	-45.06058000
30.99999981	-63.03598000
31.03999981	-72.02368000
31.07999981	-85.49760000
31.11999981	-89.98383000
31.15999981	-89.98383000
31.19999981	-89.98383000
31.23999981	-81.01138000
31.27999981	-72.02368000
31.31999981	-72.02368000
31.35999981	-63.03598000
31.39999981	-58.54976000
31.43999981	-58.54976000
31.47999981	-54.04828000
31.51999981	-54.04828000
31.55999981	-54.04828000
