Time,Channel A
(us),(mV)

0.00000000,-61.09195000
0.04000000,-71.87719000
0.08000000,-79.06125000
0.12000000,-88.04590000
0.16000000,-97.03055000
0.20000000,-106.01520000
0.24000000,-115.00600000
0.28000000,-120.39550000
0.32000000,-125.78510000
0.36000000,-129.38020000
0.40000000,-127.57960000
0.44000000,-127.57960000
0.48000000,-115.00600000
0.52000000,-104.22070000
0.56000000,-91.64098000
0.60000000,-84.45692000
0.64000000,-75.47227000
0.68000000,-70.07660000
0.72000000,-64.68703000
0.76000000,-61.09195000
0.80000000,-59.29746000
0.83999999,-57.50298000
0.87999999,-55.70238000
0.91999999,-50.31281000
0.95999999,-46.71774000
0.99999999,-43.12265000
1.03999999,-34.13800000
1.07999999,-23.35887000
1.11999999,-7.18405700
1.15999999,5.38956800
1.19999999,19.76379000
1.23999999,43.12265000
1.27999999,61.09195000
1.31999999,75.47227000
1.35999999,89.84650000
1.39999999,104.22070000
1.43999999,118.59490000
1.47999999,129.38020000
1.51999999,140.15930000
1.55999999,143.75440000
1.59999999,149.14400000
1.63999999,147.34950000
1.67999999,141.95990000
1.71999999,136.56420000
1.75999999,127.57960000
1.79999999,115.00600000
1.83999999,106.01520000
1.87999999,97.03055000
1.91999999,86.25141000
1.95999999,77.26676000
1.99999999,68.28211000
2.03999999,59.29746000
2.07999999,52.10730000
2.11999999,43.12265000
2.15999999,35.93859000
2.19999999,28.74844000
2.23999999,21.55827000
2.27999999,14.37422000
2.31999999,5.38956800
2.35999999,-1.79448800
2.39999999,-10.77914000
2.43999999,-19.76379000
2.47999998,-28.74844000
2.51999998,-37.73308000
2.55999998,-48.51222000
2.59999998,-59.29746000
2.63999998,-68.28211000
2.67999998,-75.47227000
2.71999998,-86.25141000
2.75999998,-95.23605000
2.79999998,-104.22070000
2.83999998,-111.41090000
2.87999998,-113.20540000
2.91999998,-111.41090000
2.95999998,-107.81580000
2.99999998,-102.42620000
3.03999998,-98.83114000
3.07999998,-93.44157000
3.11999998,-89.84650000
3.15999998,-88.04590000
3.19999998,-86.25141000
3.23999998,-82.65633000
3.27999998,-79.06125000
3.31999998,-77.26676000
3.35999998,-73.67168000
3.39999998,-70.07660000
3.43999998,-66.48762000
3.47999998,-62.89254000
3.51999998,-57.50298000
3.55999998,-46.71774000
3.59999998,-37.73308000
3.63999998,-23.35887000
3.67999998,-7.18405700
3.71999998,7.18405700
3.75999998,25.15336000
3.79999998,41.32816000
3.83999998,57.50298000
3.87999998,71.87719000
3.91999998,86.25141000
3.95999998,98.83114000
3.99999998,109.61030000
4.03999998,120.39550000
4.07999998,129.38020000
4.11999997,136.56420000
4.15999997,141.95990000
4.19999997,141.95990000
4.23999997,140.15930000
4.27999997,136.56420000
4.31999997,129.38020000
4.35999997,122.19000000
4.39999997,115.00600000
4.43999997,106.01520000
4.47999997,100.62560000
4.51999997,91.64098000
4.55999997,84.45692000
4.59999997,77.26676000
4.63999997,71.87719000
4.67999997,64.68703000
4.71999997,55.70238000
4.75999997,50.31281000
4.79999997,41.32816000
4.83999997,32.34352000
4.87999997,23.35887000
4.91999997,12.57363000
4.95999997,3.58897700
4.99999997,-7.18405700
5.03999997,-17.96930000
5.07999997,-30.54292000
5.11999997,-39.52757000
5.15999997,-50.31281000
5.19999997,-61.09195000
5.23999997,-70.07660000
5.27999997,-79.06125000
5.31999997,-86.25141000
5.35999997,-95.23605000
5.39999997,-100.62560000
5.43999997,-106.01520000
5.47999997,-111.41090000
5.51999997,-113.20540000
5.55999997,-115.00600000
5.59999997,-115.00600000
5.63999997,-115.00600000
5.67999997,-111.41090000
5.71999997,-107.81580000
5.75999996,-102.42620000
5.79999996,-97.03055000
5.83999996,-89.84650000
5.87999996,-84.45692000
5.91999996,-77.26676000
5.95999996,-68.28211000
5.99999996,-61.09195000
6.03999996,-52.10730000
6.07999996,-41.32816000
6.11999996,-37.73308000
6.15999996,-30.54292000
6.19999996,-14.37422000
6.23999996,-1.79448800
6.27999996,1.79448800
6.31999996,8.98464900
6.35999996,17.96930000
6.39999996,32.34352000
6.43999996,41.32816000
6.47999996,50.31281000
6.51999996,61.09195000
6.55999996,71.87719000
6.59999996,80.86184000
6.63999996,91.64098000
6.67999996,104.22070000
6.71999996,115.00600000
6.75999996,123.99060000
6.79999996,132.97520000
6.83999996,140.15930000
6.87999996,141.95990000
6.91999996,140.15930000
6.95999996,136.56420000
6.99999996,131.17470000
7.03999996,122.19000000
7.07999996,115.00600000
7.11999996,104.22070000
7.15999996,93.44157000
7.19999996,82.65633000
7.23999996,73.67168000
7.27999996,62.89254000
7.31999996,55.70238000
7.35999996,46.71774000
7.39999996,37.73308000
7.43999995,28.74844000
7.47999995,19.76379000
7.51999995,8.98464900
7.55999995,-1.79448800
7.59999995,-8.98464900
7.63999995,-21.55827000
7.67999995,-30.54292000
7.71999995,-39.52757000
7.75999995,-50.31281000
7.79999995,-57.50298000
7.83999995,-66.48762000
7.87999995,-75.47227000
7.91999995,-82.65633000
7.95999995,-89.84650000
7.99999995,-95.23605000
8.03999995,-100.62560000
8.07999995,-106.01520000
8.11999995,-111.41090000
8.15999995,-115.00600000
8.19999995,-118.59490000
8.23999995,-116.80040000
8.27999995,-116.80040000
8.31999995,-104.22070000
8.35999995,-97.03055000
8.39999995,-80.86184000
8.43999995,-79.06125000
8.47999995,-70.07660000
8.51999995,-66.48762000
8.55999995,-61.09195000
8.59999995,-59.29746000
8.63999995,-57.50298000
8.67999995,-53.90789000
8.71999995,-50.31281000
8.75999995,-52.10730000
8.79999995,-46.71774000
8.83999995,-41.32816000
8.87999995,-30.54292000
8.91999995,-17.96930000
8.95999995,-3.58897700
8.99999995,14.37422000
9.03999995,32.34352000
9.07999994,52.10730000
9.11999994,70.07660000
9.15999994,86.25141000
9.19999994,102.42620000
9.23999994,116.80040000
9.27999994,129.38020000
9.31999994,140.15930000
9.35999994,147.34950000
9.39999994,149.14400000
9.43999994,147.34950000
9.47999994,143.75440000
9.51999994,136.56420000
9.55999994,127.57960000
9.59999994,118.59490000
9.63999994,109.61030000
9.67999994,100.62560000
9.71999994,89.84650000
9.75999994,82.65633000
9.79999994,75.47227000
9.83999994,70.07660000
9.87999994,62.89254000
9.91999994,57.50298000
9.95999994,50.31281000
9.99999994,43.12265000
10.03999994,35.93859000
10.07999994,26.95395000
10.11999994,17.96930000
10.15999994,8.98464900
10.19999994,0.00000000
10.23999994,-10.77914000
10.27999994,-21.55827000
10.31999994,-32.34352000
10.35999994,-43.12265000
10.39999994,-53.90789000
10.43999994,-64.68703000
10.47999994,-73.67168000
10.51999994,-84.45692000
10.55999994,-91.64098000
10.59999994,-100.62560000
10.63999994,-107.81580000
10.67999994,-115.00600000
10.71999993,-118.59490000
10.75999993,-122.19000000
10.79999993,-122.19000000
10.83999993,-122.19000000
10.87999993,-118.59490000
10.91999993,-115.00600000
10.95999993,-109.61030000
10.99999993,-104.22070000
11.03999993,-97.03055000
11.07999993,-89.84650000
11.11999993,-80.86184000
11.15999993,-73.67168000
11.19999993,-66.48762000
11.23999993,-57.50298000
11.27999993,-50.31281000
11.31999993,-41.32816000
11.35999993,-34.13800000
11.39999993,-25.15336000
11.43999993,-16.16870000
11.47999993,-7.18405700
11.51999993,0.00000000
11.55999993,10.77914000
11.59999993,19.76379000
11.63999993,28.74844000
11.67999993,39.52757000
11.71999993,50.31281000
11.75999993,57.50298000
11.79999993,70.07660000
11.83999993,79.06125000
11.87999993,91.64098000
11.91999993,104.22070000
11.95999993,115.00600000
11.99999993,125.78510000
12.03999993,134.76970000
12.07999993,140.15930000
12.11999993,141.95990000
12.15999993,141.95990000
12.19999993,136.56420000
12.23999993,129.38020000
12.27999993,120.39550000
12.31999993,111.41090000
12.35999992,100.62560000
12.39999992,89.84650000
12.43999992,79.06125000
12.47999992,70.07660000
12.51999992,59.29746000
12.55999992,50.31281000
12.59999992,41.32816000
12.63999992,30.54292000
12.67999992,23.35887000
12.71999992,12.57363000
12.75999992,3.58897700
12.79999992,-5.38956800
12.83999992,-14.37422000
12.87999992,-25.15336000
12.91999992,-32.34352000
12.95999992,-43.12265000
12.99999992,-52.10730000
13.03999992,-61.09195000
13.07999992,-68.28211000
13.11999992,-77.26676000
13.15999992,-84.45692000
13.19999992,-89.84650000
13.23999992,-97.03055000
13.27999992,-102.42620000
13.31999992,-107.81580000
13.35999992,-115.00600000
13.39999992,-118.59490000
13.43999992,-122.19000000
13.47999992,-123.99060000
13.51999992,-123.99060000
13.55999992,-122.19000000
13.59999992,-120.39550000
13.63999992,-115.00600000
13.67999992,-109.61030000
13.71999992,-102.42620000
13.75999992,-93.44157000
13.79999992,-82.65633000
13.83999992,-73.67168000
13.87999992,-62.89254000
13.91999992,-52.10730000
13.95999992,-41.32816000
13.99999991,-30.54292000
14.03999991,-21.55827000
14.07999991,-10.77914000
14.11999991,0.00000000
14.15999991,8.98464900
14.19999991,19.76379000
14.23999991,26.95395000
14.27999991,35.93859000
14.31999991,43.12265000
14.35999991,53.90789000
14.39999991,61.09195000
14.43999991,70.07660000
14.47999991,79.06125000
14.51999991,88.04590000
14.55999991,98.83114000
14.59999991,107.81580000
14.63999991,118.59490000
14.67999991,125.78510000
14.71999991,131.17470000
14.75999991,134.76970000
14.79999991,134.76970000
14.83999991,132.97520000
14.87999991,127.57960000
14.91999991,120.39550000
14.95999991,111.41090000
14.99999991,100.62560000
15.03999991,89.84650000
15.07999991,80.86184000
15.11999991,70.07660000
15.15999991,59.29746000
15.19999991,48.51222000
15.23999991,37.73308000
15.27999991,28.74844000
15.31999991,17.96930000
15.35999991,7.18405700
15.39999991,-1.79448800
15.43999991,-10.77914000
15.47999991,-21.55827000
15.51999991,-30.54292000
15.55999991,-41.32816000
15.59999991,-50.31281000
15.63999990,-57.50298000
15.67999990,-64.68703000
15.71999990,-73.67168000
15.75999990,-79.06125000
15.79999990,-88.04590000
15.83999990,-93.44157000
15.87999990,-100.62560000
15.91999990,-107.81580000
15.95999990,-113.20540000
15.99999990,-115.00600000
16.03999990,-116.80040000
16.07999990,-122.19000000
16.11999990,-123.99060000
16.15999990,-123.99060000
16.19999990,-122.19000000
16.23999990,-120.39550000
16.27999990,-113.20540000
16.31999990,-104.22070000
16.35999990,-89.84650000
16.39999990,-75.47227000
16.43999990,-66.48762000
16.47999990,-57.50298000
16.51999990,-52.10730000
16.55999990,-43.12265000
16.59999990,-43.12265000
16.63999990,-35.93859000
16.67999990,-32.34352000
16.71999990,-25.15336000
16.75999990,-17.96930000
16.79999990,-10.77914000
16.83999990,0.00000000
16.87999990,10.77914000
16.91999990,23.35887000
16.95999990,39.52757000
16.99999990,55.70238000
17.03999990,70.07660000
17.07999990,86.25141000
17.11999990,100.62560000
17.15999990,115.00600000
17.19999990,127.57960000
17.23999990,136.56420000
17.27999989,143.75440000
17.31999989,147.34950000
17.35999989,143.75440000
17.39999989,136.56420000
17.43999989,131.17470000
17.47999989,123.99060000
17.51999989,113.20540000
17.55999989,104.22070000
17.59999989,93.44157000
17.63999989,86.25141000
17.67999989,77.26676000
17.71999989,66.48762000
17.75999989,57.50298000
17.79999989,48.51222000
17.83999989,41.32816000
17.87999989,30.54292000
17.91999989,25.15336000
17.95999989,14.37422000
17.99999989,5.38956800
18.03999989,-1.79448800
18.07999989,-10.77914000
18.11999989,-19.76379000
18.15999989,-28.74844000
18.19999989,-35.93859000
18.23999989,-44.92325000
18.27999989,-53.90789000
18.31999989,-62.89254000
18.35999989,-71.87719000
18.39999989,-80.86184000
18.43999989,-89.84650000
18.47999989,-97.03055000
18.51999989,-106.01520000
18.55999989,-115.00600000
18.59999989,-120.39550000
18.63999989,-125.78510000
18.67999989,-129.38020000
18.71999989,-131.17470000
18.75999989,-129.38020000
18.79999989,-127.57960000
18.83999989,-122.19000000
18.87999989,-115.00600000
18.91999989,-111.41090000
18.95999988,-100.62560000
18.99999988,-91.64098000
19.03999988,-84.45692000
19.07999988,-71.87719000
19.11999988,-62.89254000
19.15999988,-53.90789000
19.19999988,-43.12265000
19.23999988,-35.93859000
19.27999988,-25.15336000
19.31999988,-14.37422000
19.35999988,-5.38956800
19.39999988,3.58897700
19.43999988,14.37422000
19.47999988,21.55827000
19.51999988,28.74844000
19.55999988,37.73308000
19.59999988,46.71774000
19.63999988,53.90789000
19.67999988,62.89254000
19.71999988,71.87719000
19.75999988,84.45692000
19.79999988,93.44157000
19.83999988,104.22070000
19.87999988,115.00600000
19.91999988,123.99060000
19.95999988,131.17470000
19.99999988,136.56420000
20.03999988,138.36480000
20.07999988,136.56420000
20.11999988,132.97520000
20.15999988,125.78510000
20.19999988,116.80040000
20.23999988,106.01520000
20.27999988,93.44157000
20.31999988,82.65633000
20.35999988,70.07660000
20.39999988,59.29746000
20.43999988,46.71774000
20.47999988,35.93859000
20.51999988,25.15336000
20.55999988,14.37422000
20.59999987,5.38956800
20.63999987,-3.58897700
20.67999987,-12.57363000
20.71999987,-21.55827000
20.75999987,-28.74844000
20.79999987,-37.73308000
20.83999987,-44.92325000
20.87999987,-53.90789000
20.91999987,-66.48762000
20.95999987,-66.48762000
20.99999987,-71.87719000
21.03999987,-80.86184000
21.07999987,-88.04590000
21.11999987,-97.03055000
21.15999987,-100.62560000
21.19999987,-107.81580000
21.23999987,-115.00600000
21.27999987,-118.59490000
21.31999987,-123.99060000
21.35999987,-127.57960000
21.39999987,-129.38020000
21.43999987,-129.38020000
21.47999987,-127.57960000
21.51999987,-123.99060000
21.55999987,-118.59490000
21.59999987,-109.61030000
21.63999987,-100.62560000
21.67999987,-93.44157000
21.71999987,-82.65633000
21.75999987,-70.07660000
21.79999987,-57.50298000
21.83999987,-44.92325000
21.87999987,-34.13800000
21.91999987,-21.55827000
21.95999987,-10.77914000
21.99999987,0.00000000
22.03999987,10.77914000
22.07999987,19.76379000
22.11999987,28.74844000
22.15999987,35.93859000
22.19999987,44.92325000
22.23999986,52.10730000
22.27999986,59.29746000
22.31999986,66.48762000
22.35999986,75.47227000
22.39999986,84.45692000
22.43999986,93.44157000
22.47999986,102.42620000
22.51999986,111.41090000
22.55999986,118.59490000
22.59999986,125.78510000
22.63999986,129.38020000
22.67999986,132.97520000
22.71999986,132.97520000
22.75999986,129.38020000
22.79999986,122.19000000
22.83999986,115.00600000
22.87999986,106.01520000
22.91999986,95.23605000
22.95999986,84.45692000
22.99999986,71.87719000
23.03999986,61.09195000
23.07999986,50.31281000
23.11999986,37.73308000
23.15999986,26.95395000
23.19999986,14.37422000
23.23999986,5.38956800
23.27999986,-5.38956800
23.31999986,-14.37422000
23.35999986,-25.15336000
23.39999986,-34.13800000
23.43999986,-43.12265000
23.47999986,-50.31281000
23.51999986,-59.29746000
23.55999986,-66.48762000
23.59999986,-73.67168000
23.63999986,-80.86184000
23.67999986,-86.25141000
23.71999986,-93.44157000
23.75999986,-100.62560000
23.79999986,-106.01520000
23.83999986,-111.41090000
23.87999985,-116.80040000
23.91999985,-120.39550000
23.95999985,-123.99060000
23.99999985,-125.78510000
24.03999985,-127.57960000
24.07999985,-127.57960000
24.11999985,-125.78510000
24.15999985,-122.19000000
24.19999985,-118.59490000
24.23999985,-109.61030000
24.27999985,-102.42620000
24.31999985,-93.44157000
24.35999985,-82.65633000
24.39999985,-71.87719000
24.43999985,-59.29746000
24.47999985,-48.51222000
24.51999985,-35.93859000
24.55999985,-23.35887000
24.59999985,-10.77914000
24.63999985,0.00000000
24.67999985,8.98464900
24.71999985,19.76379000
24.75999985,28.74844000
24.79999985,37.73308000
24.83999985,46.71774000
24.87999985,55.70238000
24.91999985,62.89254000
24.95999985,68.28211000
24.99999985,79.06125000
25.03999985,86.25141000
25.07999985,95.23605000
25.11999985,104.22070000
25.15999985,113.20540000
25.19999985,120.39550000
25.23999985,127.57960000
25.27999985,129.38020000
25.31999985,132.97520000
25.35999985,132.97520000
25.39999985,132.97520000
25.43999985,134.76970000
25.47999985,134.76970000
25.51999984,127.57960000
25.55999984,113.20540000
25.59999984,93.44157000
25.63999984,70.07660000
25.67999984,43.12265000
25.71999984,19.76379000
25.75999984,-3.58897700
25.79999984,-23.35887000
25.83999984,-25.15336000
25.87999984,-19.76379000
25.91999984,-14.37422000
25.95999984,-16.16870000
25.99999984,-16.16870000
26.03999984,-21.55827000
26.07999984,-25.15336000
26.11999984,-35.93859000
26.15999984,-46.71774000
26.19999984,-59.29746000
26.23999984,-66.48762000
26.27999984,-73.67168000
26.31999984,-80.86184000
26.35999984,-88.04590000
26.39999984,-97.03055000
26.43999984,-102.42620000
26.47999984,-107.81580000
26.51999984,-113.20540000
26.55999984,-120.39550000
26.59999984,-125.78510000
26.63999984,-129.38020000
26.67999984,-132.97520000
26.71999984,-134.76970000
26.75999984,-132.97520000
26.79999984,-129.38020000
26.83999984,-115.00600000
26.87999984,-100.62560000
26.91999984,-82.65633000
26.95999984,-71.87719000
26.99999984,-57.50298000
27.03999984,-48.51222000
27.07999984,-41.32816000
27.11999984,-35.93859000
27.15999983,-32.34352000
27.19999983,-32.34352000
27.23999983,-28.74844000
27.27999983,-25.15336000
27.31999983,-16.16870000
27.35999983,-5.38956800
27.39999983,7.18405700
27.43999983,21.55827000
27.47999983,41.32816000
27.51999983,57.50298000
27.55999983,71.87719000
27.59999983,86.25141000
27.63999983,100.62560000
27.67999983,113.20540000
27.71999983,123.99060000
27.75999983,134.76970000
27.79999983,141.95990000
27.83999983,143.75440000
27.87999983,145.54890000
27.91999983,147.34950000
27.95999983,158.12860000
27.99999983,161.72370000
28.03999983,138.36480000
28.07999983,106.01520000
28.11999983,93.44157000
28.15999983,82.65633000
28.19999983,50.31281000
28.23999983,19.76379000
28.27999983,7.18405700
28.31999983,14.37422000
28.35999983,25.15336000
28.39999983,26.95395000
28.43999983,21.55827000
28.47999983,16.16870000
28.51999983,21.55827000
28.55999983,19.76379000
28.59999983,3.58897700
28.63999983,-16.16870000
28.67999983,-26.95395000
28.71999983,-28.74844000
28.75999983,-35.93859000
28.79999982,-50.31281000
28.83999982,-61.09195000
28.87999982,-68.28211000
28.91999982,-71.87719000
28.95999982,-80.86184000
28.99999982,-89.84650000
29.03999982,-102.42620000
29.07999982,-115.00600000
29.11999982,-120.39550000
29.15999982,-129.38020000
29.19999982,-127.57960000
29.23999982,-129.38020000
29.27999982,-116.80040000
29.31999982,-111.41090000
29.35999982,-98.83114000
29.39999982,-89.84650000
29.43999982,-79.06125000
29.47999982,-73.67168000
29.51999982,-64.68703000
29.55999982,-59.29746000
29.59999982,-57.50298000
29.63999982,-61.09195000
29.67999982,-61.09195000
29.71999982,-59.29746000
29.75999982,-57.50298000
29.79999982,-50.31281000
29.83999982,-44.92325000
29.87999982,-28.74844000
29.91999982,-14.37422000
29.95999982,5.38956800
29.99999982,21.55827000
30.03999982,35.93859000
30.07999982,53.90789000
30.11999982,68.28211000
30.15999982,82.65633000
30.19999982,95.23605000
30.23999982,107.81580000
30.27999982,120.39550000
30.31999982,132.97520000
30.35999982,143.75440000
30.39999982,150.94450000
30.43999982,154.53350000
30.47999981,149.14400000
30.51999981,145.54890000
30.55999981,134.76970000
30.59999981,125.78510000
30.63999981,113.20540000
30.67999981,104.22070000
30.71999981,93.44157000
30.75999981,79.06125000
30.79999981,77.26676000
30.83999981,71.87719000
30.87999981,57.50298000
30.91999981,50.31281000
30.95999981,43.12265000
30.99999981,39.52757000
31.03999981,32.34352000
31.07999981,21.55827000
31.11999981,14.37422000
31.15999981,5.38956800
31.19999981,-5.38956800
31.23999981,-16.16870000
31.27999981,-23.35887000
