Time,Channel A
(us),(mV)

0.00000000,130.11560000
0.04000000,125.61420000
0.08000000,116.64170000
0.12000000,107.65400000
0.16000000,98.66634000
0.20000000,85.19241000
0.24000000,71.71850000
0.28000000,62.73079000
0.32000000,53.74309000
0.36000000,40.26917000
0.40000000,35.78295000
0.44000000,22.29377000
0.48000000,13.32133000
0.52000000,4.33362800
0.56000000,-4.63881300
0.60000000,-18.11273000
0.64000000,-36.08813000
0.68000000,-54.04828000
0.72000000,-67.52220000
0.76000000,-81.01138000
0.80000000,-94.48530000
0.83999999,-98.97152000
0.87999999,-94.48530000
0.91999999,-89.98383000
0.95999999,-81.01138000
0.99999999,-72.02368000
1.03999999,-67.52220000
1.07999999,-63.03598000
1.11999999,-58.54976000
1.15999999,-58.54976000
1.19999999,-54.04828000
1.23999999,-54.04828000
1.27999999,-54.04828000
1.31999999,-58.54976000
1.35999999,-63.03598000
1.39999999,-63.03598000
1.43999999,-63.03598000
1.47999999,-63.03598000
1.51999999,-54.04828000
1.55999999,-49.56206000
1.59999999,-40.57436000
1.63999999,-36.08813000
1.67999999,-27.10044000
1.71999999,-22.59896000
1.75999999,-13.62651000
1.79999999,-4.63881300
1.83999999,8.81984900
1.87999999,17.80755000
1.91999999,31.28147000
1.95999999,40.26917000
1.99999999,53.74309000
2.03999999,67.21701000
2.07999999,80.70620000
2.11999999,94.18011000
2.15999999,107.65400000
2.19999999,121.12800000
2.23999999,130.11560000
2.27999999,134.60190000
2.31999999,139.10340000
2.35999999,130.11560000
2.39999999,121.12800000
2.43999999,112.14030000
2.47999998,103.15250000
2.51999998,89.67863000
2.55999998,80.70620000
2.59999998,67.21701000
2.63999998,58.24457000
2.67999998,44.75539000
2.71999998,35.78295000
2.75999998,26.79525000
2.79999998,17.80755000
2.83999998,4.33362800
2.87999998,-4.63881300
2.91999998,-18.11273000
2.95999998,-31.58666000
2.99999998,-49.56206000
3.03999998,-72.02368000
3.07999998,-81.01138000
3.11999998,-94.48530000
3.15999998,-94.48530000
3.19999998,-94.48530000
3.23999998,-89.98383000
3.27999998,-76.50990000
3.31999998,-72.02368000
3.35999998,-67.52220000
3.39999998,-58.54976000
3.43999998,-58.54976000
3.47999998,-54.04828000
3.51999998,-54.04828000
3.55999998,-54.04828000
3.59999998,-54.04828000
3.63999998,-58.54976000
3.67999998,-63.03598000
3.71999998,-63.03598000
3.75999998,-63.03598000
3.79999998,-63.03598000
3.83999998,-54.04828000
3.87999998,-49.56206000
3.91999998,-40.57436000
3.95999998,-36.08813000
3.99999998,-27.10044000
4.03999998,-18.11273000
4.07999998,-13.62651000
4.11999997,-4.63881300
4.15999997,4.33362800
4.19999997,17.80755000
4.23999997,31.28147000
4.27999997,49.25687000
4.31999997,53.74309000
4.35999997,67.21701000
4.39999997,80.70620000
4.43999997,98.66634000
4.47999997,112.14030000
4.51999997,125.61420000
4.55999997,134.60190000
4.59999997,134.60190000
4.63999997,139.10340000
4.67999997,134.60190000
4.71999997,121.12800000
4.75999997,112.14030000
4.79999997,98.66634000
4.83999997,89.67863000
4.87999997,80.70620000
4.91999997,67.21701000
4.95999997,53.74309000
4.99999997,44.75539000
5.03999997,35.78295000
5.07999997,31.28147000
5.11999997,17.80755000
5.15999997,8.81984900
5.19999997,-0.15259250
5.23999997,-13.62651000
5.27999997,-27.10044000
5.31999997,-45.06058000
5.35999997,-63.03598000
5.39999997,-76.50990000
5.43999997,-89.98383000
5.47999997,-103.45770000
5.51999997,-103.45770000
5.55999997,-103.45770000
5.59999997,-94.48530000
5.63999997,-89.98383000
5.67999997,-81.01138000
5.71999997,-67.52220000
5.75999996,-63.03598000
5.79999996,-54.04828000
5.83999996,-54.04828000
5.87999996,-54.04828000
5.91999996,-54.04828000
5.95999996,-58.54976000
5.99999996,-58.54976000
6.03999996,-63.03598000
6.07999996,-63.03598000
6.11999996,-58.54976000
6.15999996,-58.54976000
6.19999996,-54.04828000
6.23999996,-49.56206000
6.27999996,-40.57436000
6.31999996,-27.10044000
6.35999996,-22.59896000
6.39999996,-13.62651000
6.43999996,-0.15259250
6.47999996,4.33362800
6.51999996,17.80755000
6.55999996,26.79525000
6.59999996,35.78295000
6.63999996,49.25687000
6.67999996,58.24457000
6.71999996,76.20471000
6.75999996,89.67863000
6.79999996,98.66634000
6.83999996,116.64170000
6.87999996,125.61420000
6.91999996,130.11560000
6.95999996,130.11560000
6.99999996,125.61420000
7.03999996,121.12800000
7.07999996,112.14030000
7.11999996,103.15250000
7.15999996,89.67863000
7.19999996,80.70620000
7.23999996,67.21701000
7.27999996,58.24457000
7.31999996,49.25687000
7.35999996,35.78295000
7.39999996,26.79525000
7.43999995,17.80755000
7.47999995,8.81984900
7.51999995,-0.15259250
7.55999995,-13.62651000
7.59999995,-27.10044000
7.63999995,-40.57436000
7.67999995,-58.54976000
7.71999995,-76.50990000
7.75999995,-89.98383000
7.79999995,-94.48530000
7.83999995,-98.97152000
7.87999995,-89.98383000
7.91999995,-85.49760000
7.95999995,-72.02368000
7.99999995,-81.01138000
8.03999995,-76.50990000
8.07999995,-63.03598000
8.11999995,-54.04828000
8.15999995,-58.54976000
8.19999995,-67.52220000
8.23999995,-63.03598000
8.27999995,-63.03598000
8.31999995,-63.03598000
8.35999995,-67.52220000
8.39999995,-67.52220000
8.43999995,-67.52220000
8.47999995,-63.03598000
8.51999995,-54.04828000
8.55999995,-45.06058000
8.59999995,-40.57436000
8.63999995,-36.08813000
8.67999995,-22.59896000
8.71999995,-13.62651000
8.75999995,-9.12503300
8.79999995,-0.15259250
8.83999995,8.81984900
8.87999995,22.29377000
8.91999995,31.28147000
8.95999995,40.26917000
8.99999995,53.74309000
9.03999995,67.21701000
9.07999994,76.20471000
9.11999994,89.67863000
9.15999994,107.65400000
9.19999994,116.64170000
9.23999994,125.61420000
9.27999994,130.11560000
9.31999994,130.11560000
9.35999994,125.61420000
9.39999994,121.12800000
9.43999994,107.65400000
9.47999994,103.15250000
9.51999994,89.67863000
9.55999994,76.20471000
9.59999994,67.21701000
9.63999994,53.74309000
9.67999994,44.75539000
9.71999994,35.78295000
9.75999994,22.29377000
9.79999994,13.32133000
9.83999994,4.33362800
9.87999994,-4.63881300
9.91999994,-18.11273000
9.95999994,-36.08813000
9.99999994,-49.56206000
10.03999994,-67.52220000
10.07999994,-81.01138000
10.11999994,-89.98383000
10.15999994,-98.97152000
10.19999994,-94.48530000
10.23999994,-85.49760000
10.27999994,-72.02368000
10.31999994,-67.52220000
10.35999994,-63.03598000
10.39999994,-58.54976000
10.43999994,-54.04828000
10.47999994,-54.04828000
10.51999994,-54.04828000
10.55999994,-54.04828000
10.59999994,-54.04828000
10.63999994,-54.04828000
10.67999994,-58.54976000
10.71999993,-63.03598000
10.75999993,-63.03598000
10.79999993,-58.54976000
10.83999993,-54.04828000
10.87999993,-45.06058000
10.91999993,-40.57436000
10.95999993,-36.08813000
10.99999993,-27.10044000
11.03999993,-18.11273000
11.07999993,-13.62651000
11.11999993,-9.12503300
11.15999993,4.33362800
11.19999993,13.32133000
11.23999993,26.79525000
11.27999993,40.26917000
11.31999993,53.74309000
11.35999993,67.21701000
11.39999993,80.70620000
11.43999993,98.66634000
11.47999993,112.14030000
11.51999993,125.61420000
11.55999993,134.60190000
11.59999993,139.10340000
11.63999993,139.10340000
11.67999993,130.11560000
11.71999993,125.61420000
11.75999993,116.64170000
11.79999993,107.65400000
11.83999993,89.67863000
11.87999993,80.70620000
11.91999993,67.21701000
11.95999993,58.24457000
11.99999993,44.75539000
12.03999993,35.78295000
12.07999993,26.79525000
12.11999993,17.80755000
12.15999993,8.81984900
12.19999993,-0.15259250
12.23999993,-18.11273000
12.27999993,-31.58666000
12.31999993,-45.06058000
12.35999992,-63.03598000
12.39999992,-76.50990000
12.43999992,-89.98383000
12.47999992,-98.97152000
12.51999992,-103.45770000
12.55999992,-94.48530000
12.59999992,-89.98383000
12.63999992,-72.02368000
12.67999992,-72.02368000
12.71999992,-63.03598000
12.75999992,-58.54976000
12.79999992,-58.54976000
12.83999992,-58.54976000
12.87999992,-58.54976000
12.91999992,-58.54976000
12.95999992,-58.54976000
12.99999992,-58.54976000
13.03999992,-58.54976000
13.07999992,-63.03598000
13.11999992,-63.03598000
13.15999992,-63.03598000
13.19999992,-54.04828000
13.23999992,-45.06058000
13.27999992,-36.08813000
13.31999992,-27.10044000
13.35999992,-18.11273000
13.39999992,-9.12503300
13.43999992,-0.15259250
13.47999992,8.81984900
13.51999992,17.80755000
13.55999992,31.28147000
13.59999992,40.26917000
13.63999992,53.74309000
13.67999992,67.21701000
13.71999992,76.20471000
13.75999992,89.67863000
13.79999992,103.15250000
13.83999992,116.64170000
13.87999992,121.12800000
13.91999992,130.11560000
13.95999992,130.11560000
13.99999991,125.61420000
14.03999991,116.64170000
14.07999991,107.65400000
14.11999991,98.66634000
14.15999991,89.67863000
14.19999991,76.20471000
14.23999991,67.21701000
14.27999991,53.74309000
14.31999991,44.75539000
14.35999991,35.78295000
14.39999991,26.79525000
14.43999991,17.80755000
14.47999991,8.81984900
14.51999991,-0.15259250
14.55999991,-13.62651000
14.59999991,-27.10044000
14.63999991,-40.57436000
14.67999991,-63.03598000
14.71999991,-81.01138000
14.75999991,-94.48530000
14.79999991,-98.97152000
14.83999991,-94.48530000
14.87999991,-89.98383000
14.91999991,-81.01138000
14.95999991,-72.02368000
14.99999991,-63.03598000
15.03999991,-58.54976000
15.07999991,-58.54976000
15.11999991,-54.04828000
15.15999991,-54.04828000
15.19999991,-54.04828000
15.23999991,-54.04828000
15.27999991,-54.04828000
15.31999991,-58.54976000
15.35999991,-58.54976000
15.39999991,-63.03598000
15.43999991,-58.54976000
15.47999991,-54.04828000
15.51999991,-54.04828000
15.55999991,-40.57436000
15.59999991,-36.08813000
15.63999990,-27.10044000
15.67999990,-22.59896000
15.71999990,-13.62651000
15.75999990,-4.63881300
15.79999990,-0.15259250
15.83999990,13.32133000
15.87999990,26.79525000
15.91999990,35.78295000
15.95999990,49.25687000
15.99999990,62.73079000
16.03999990,80.70620000
16.07999990,98.66634000
16.11999990,112.14030000
16.15999990,125.61420000
16.19999990,134.60190000
16.23999990,139.10340000
16.27999990,139.10340000
16.31999990,134.60190000
16.35999990,125.61420000
16.39999990,116.64170000
16.43999990,103.15250000
16.47999990,89.67863000
16.51999990,80.70620000
16.55999990,71.71850000
16.59999990,53.74309000
16.63999990,44.75539000
16.67999990,35.78295000
16.71999990,26.79525000
16.75999990,17.80755000
16.79999990,17.80755000
16.83999990,22.29377000
16.87999990,17.80755000
16.91999990,-4.63881300
16.95999990,-40.57436000
16.99999990,-67.52220000
17.03999990,-89.98383000
17.07999990,-121.43310000
17.11999990,-152.88250000
17.15999990,-157.36870000
17.19999990,-139.40860000
17.23999990,-107.95920000
17.27999989,-89.98383000
17.31999989,-72.02368000
17.35999989,-54.04828000
17.39999989,-36.08813000
17.43999989,-27.10044000
17.47999989,-31.58666000
17.51999989,-40.57436000
17.55999989,-49.56206000
17.59999989,-40.57436000
17.63999989,-45.06058000
17.67999989,-54.04828000
17.71999989,-58.54976000
17.75999989,-54.04828000
17.79999989,-45.06058000
17.83999989,-49.56206000
17.87999989,-49.56206000
17.91999989,-36.08813000
17.95999989,-22.59896000
17.99999989,-18.11273000
18.03999989,-18.11273000
18.07999989,-13.62651000
18.11999989,-4.63881300
18.15999989,4.33362800
18.19999989,17.80755000
18.23999989,35.78295000
18.27999989,53.74309000
18.31999989,67.21701000
18.35999989,85.19241000
18.39999989,107.65400000
18.43999989,125.61420000
18.47999989,134.60190000
18.51999989,139.10340000
18.55999989,139.10340000
18.59999989,139.10340000
18.63999989,130.11560000
18.67999989,116.64170000
18.71999989,107.65400000
18.75999989,94.18011000
18.79999989,89.67863000
18.83999989,76.20471000
18.87999989,67.21701000
18.91999989,53.74309000
18.95999988,40.26917000
18.99999988,31.28147000
19.03999988,13.32133000
19.07999988,4.33362800
19.11999988,-4.63881300
19.15999988,-9.12503300
19.19999988,-22.59896000
19.23999988,-31.58666000
19.27999988,-45.06058000
19.31999988,-58.54976000
19.35999988,-72.02368000
19.39999988,-85.49760000
19.43999988,-94.48530000
19.47999988,-89.98383000
19.51999988,-85.49760000
19.55999988,-81.01138000
19.59999988,-72.02368000
19.63999988,-63.03598000
19.67999988,-58.54976000
19.71999988,-58.54976000
19.75999988,-58.54976000
19.79999988,-58.54976000
19.83999988,-54.04828000
19.87999988,-58.54976000
19.91999988,-63.03598000
19.95999988,-63.03598000
19.99999988,-63.03598000
20.03999988,-63.03598000
20.07999988,-63.03598000
20.11999988,-58.54976000
20.15999988,-54.04828000
20.19999988,-40.57436000
20.23999988,-36.08813000
20.27999988,-22.59896000
20.31999988,-13.62651000
20.35999988,-4.63881300
20.39999988,-0.15259250
20.43999988,8.81984900
20.47999988,17.80755000
20.51999988,26.79525000
20.55999988,35.78295000
20.59999987,49.25687000
20.63999987,58.24457000
20.67999987,71.71850000
20.71999987,89.67863000
20.75999987,103.15250000
20.79999987,121.12800000
20.83999987,130.11560000
20.87999987,134.60190000
20.91999987,130.11560000
20.95999987,125.61420000
20.99999987,121.12800000
21.03999987,112.14030000
21.07999987,103.15250000
21.11999987,89.67863000
21.15999987,80.70620000
21.19999987,71.71850000
21.23999987,58.24457000
21.27999987,49.25687000
21.31999987,40.26917000
21.35999987,31.28147000
21.39999987,17.80755000
21.43999987,8.81984900
21.47999987,-0.15259250
21.51999987,-13.62651000
21.55999987,-27.10044000
21.59999987,-45.06058000
21.63999987,-63.03598000
21.67999987,-81.01138000
21.71999987,-94.48530000
21.75999987,-103.45770000
21.79999987,-103.45770000
21.83999987,-98.97152000
21.87999987,-89.98383000
21.91999987,-76.50990000
21.95999987,-72.02368000
21.99999987,-67.52220000
22.03999987,-58.54976000
22.07999987,-58.54976000
22.11999987,-58.54976000
22.15999987,-54.04828000
22.19999987,-58.54976000
22.23999986,-58.54976000
22.27999986,-58.54976000
22.31999986,-63.03598000
22.35999986,-63.03598000
22.39999986,-58.54976000
22.43999986,-58.54976000
22.47999986,-54.04828000
22.51999986,-40.57436000
22.55999986,-36.08813000
22.59999986,-27.10044000
22.63999986,-18.11273000
22.67999986,-13.62651000
22.71999986,-9.12503300
22.75999986,-0.15259250
22.79999986,13.32133000
22.83999986,26.79525000
22.87999986,35.78295000
22.91999986,49.25687000
22.95999986,58.24457000
22.99999986,71.71850000
23.03999986,89.67863000
23.07999986,107.65400000
23.11999986,116.64170000
23.15999986,130.11560000
23.19999986,134.60190000
23.23999986,134.60190000
23.27999986,125.61420000
23.31999986,121.12800000
23.35999986,116.64170000
23.39999986,103.15250000
23.43999986,89.67863000
23.47999986,80.70620000
23.51999986,67.21701000
23.55999986,58.24457000
23.59999986,49.25687000
23.63999986,35.78295000
23.67999986,31.28147000
23.71999986,17.80755000
23.75999986,13.32133000
23.79999986,-0.15259250
23.83999986,-13.62651000
23.87999985,-27.10044000
23.91999985,-40.57436000
23.95999985,-58.54976000
23.99999985,-72.02368000
24.03999985,-89.98383000
24.07999985,-98.97152000
24.11999985,-103.45770000
24.15999985,-103.45770000
24.19999985,-89.98383000
24.23999985,-85.49760000
24.27999985,-76.50990000
24.31999985,-72.02368000
24.35999985,-63.03598000
24.39999985,-58.54976000
24.43999985,-54.04828000
24.47999985,-58.54976000
24.51999985,-58.54976000
24.55999985,-63.03598000
24.59999985,-63.03598000
24.63999985,-63.03598000
24.67999985,-67.52220000
24.71999985,-63.03598000
24.75999985,-58.54976000
24.79999985,-54.04828000
24.83999985,-49.56206000
24.87999985,-40.57436000
24.91999985,-36.08813000
24.95999985,-22.59896000
24.99999985,-13.62651000
25.03999985,-4.63881300
25.07999985,-0.15259250
25.11999985,13.32133000
25.15999985,22.29377000
25.19999985,35.78295000
25.23999985,44.75539000
25.27999985,53.74309000
25.31999985,71.71850000
25.35999985,80.70620000
25.39999985,94.18011000
25.43999985,112.14030000
25.47999985,121.12800000
25.51999984,125.61420000
25.55999984,130.11560000
25.59999984,130.11560000
25.63999984,125.61420000
25.67999984,116.64170000
25.71999984,107.65400000
25.75999984,94.18011000
25.79999984,80.70620000
25.83999984,71.71850000
25.87999984,62.73079000
25.91999984,49.25687000
25.95999984,40.26917000
25.99999984,31.28147000
26.03999984,22.29377000
26.07999984,13.32133000
26.11999984,-0.15259250
26.15999984,-9.12503300
26.19999984,-22.59896000
26.23999984,-36.08813000
26.27999984,-54.04828000
26.31999984,-72.02368000
26.35999984,-85.49760000
26.39999984,-94.48530000
26.43999984,-107.95920000
26.47999984,-98.97152000
26.51999984,-94.48530000
26.55999984,-85.49760000
26.59999984,-76.50990000
26.63999984,-72.02368000
26.67999984,-67.52220000
26.71999984,-63.03598000
26.75999984,-58.54976000
26.79999984,-58.54976000
26.83999984,-58.54976000
26.87999984,-58.54976000
26.91999984,-63.03598000
26.95999984,-63.03598000
26.99999984,-63.03598000
27.03999984,-67.52220000
27.07999984,-63.03598000
27.11999984,-58.54976000
27.15999983,-49.56206000
27.19999983,-40.57436000
27.23999983,-36.08813000
27.27999983,-27.10044000
27.31999983,-18.11273000
27.35999983,-13.62651000
27.39999983,-4.63881300
27.43999983,4.33362800
27.47999983,17.80755000
27.51999983,26.79525000
27.55999983,35.78295000
27.59999983,53.74309000
27.63999983,67.21701000
27.67999983,71.71850000
27.71999983,80.70620000
27.75999983,103.15250000
27.79999983,125.61420000
27.83999983,125.61420000
27.87999983,125.61420000
27.91999983,125.61420000
27.95999983,125.61420000
27.99999983,125.61420000
28.03999983,112.14030000
28.07999983,103.15250000
28.11999983,89.67863000
28.15999983,76.20471000
28.19999983,67.21701000
28.23999983,53.74309000
28.27999983,44.75539000
28.31999983,35.78295000
28.35999983,26.79525000
28.39999983,17.80755000
28.43999983,8.81984900
28.47999983,-4.63881300
28.51999983,-18.11273000
28.55999983,-27.10044000
28.59999983,-45.06058000
28.63999983,-63.03598000
28.67999983,-81.01138000
28.71999983,-89.98383000
28.75999983,-98.97152000
28.79999982,-103.45770000
28.83999982,-98.97152000
28.87999982,-89.98383000
28.91999982,-81.01138000
28.95999982,-72.02368000
28.99999982,-63.03598000
29.03999982,-58.54976000
29.07999982,-58.54976000
29.11999982,-54.04828000
29.15999982,-54.04828000
29.19999982,-58.54976000
29.23999982,-58.54976000
29.27999982,-63.03598000
29.31999982,-63.03598000
29.35999982,-67.52220000
29.39999982,-63.03598000
29.43999982,-58.54976000
29.47999982,-54.04828000
29.51999982,-49.56206000
29.55999982,-40.57436000
29.59999982,-31.58666000
29.63999982,-18.11273000
29.67999982,-13.62651000
29.71999982,-4.63881300
29.75999982,4.33362800
29.79999982,13.32133000
29.83999982,22.29377000
29.87999982,35.78295000
29.91999982,44.75539000
29.95999982,58.24457000
29.99999982,71.71850000
30.03999982,85.19241000
30.07999982,103.15250000
30.11999982,116.64170000
30.15999982,125.61420000
30.19999982,134.60190000
30.23999982,134.60190000
30.27999982,130.11560000
30.31999982,125.61420000
30.35999982,116.64170000
30.39999982,103.15250000
30.43999982,94.18011000
30.47999981,85.19241000
30.51999981,71.71850000
30.55999981,58.24457000
30.59999981,49.25687000
30.63999981,35.78295000
30.67999981,26.79525000
30.71999981,17.80755000
30.75999981,8.81984900
30.79999981,-4.63881300
30.83999981,-18.11273000
30.87999981,-27.10044000
30.91999981,-40.57436000
30.95999981,-58.54976000
30.99999981,-76.50990000
31.03999981,-89.98383000
31.07999981,-98.97152000
31.11999981,-103.45770000
31.15999981,-103.45770000
31.19999981,-89.98383000
31.23999981,-76.50990000
31.27999981,-67.52220000
31.31999981,-63.03598000
31.35999981,-54.04828000
31.39999981,-54.04828000
31.43999981,-49.56206000
31.47999981,-54.04828000
