Time,Channel A
(us),(mV)

0.00000000,-72.02368000
0.04000000,-72.02368000
0.08000000,-72.02368000
0.12000000,-76.50990000
0.16000000,-72.02368000
0.20000000,-67.52220000
0.24000000,-63.03598000
0.28000000,-58.54976000
0.32000000,-58.54976000
0.36000000,-54.04828000
0.40000000,-49.56206000
0.44000000,-45.06058000
0.48000000,-40.57436000
0.52000000,-36.08813000
0.56000000,-36.08813000
0.60000000,-31.58666000
0.64000000,-27.10044000
0.68000000,-22.59896000
0.72000000,-18.11273000
0.76000000,-13.62651000
0.80000000,-4.63881300
0.83999999,-0.15259250
0.87999999,8.81984900
0.91999999,17.80755000
0.95999999,22.29377000
0.99999999,31.28147000
1.03999999,35.78295000
1.07999999,49.25687000
1.11999999,58.24457000
1.15999999,67.21701000
1.19999999,80.70620000
1.23999999,89.67863000
1.27999999,98.66634000
1.31999999,103.15250000
1.35999999,103.15250000
1.39999999,98.66634000
1.43999999,94.18011000
1.47999999,85.19241000
1.51999999,76.20471000
1.55999999,71.71850000
1.59999999,62.73079000
1.63999999,49.25687000
1.67999999,35.78295000
1.71999999,31.28147000
1.75999999,26.79525000
1.79999999,22.29377000
1.83999999,17.80755000
1.87999999,8.81984900
1.91999999,-4.63881300
1.95999999,-22.59896000
1.99999999,-49.56206000
2.03999999,-72.02368000
2.07999999,-94.48530000
2.11999999,-112.44540000
2.15999999,-116.94690000
2.19999999,-112.44540000
2.23999999,-103.45770000
2.27999999,-89.98383000
2.31999999,-76.50990000
2.35999999,-63.03598000
2.39999999,-54.04828000
2.43999999,-45.06058000
2.47999998,-40.57436000
2.51999998,-36.08813000
2.55999998,-31.58666000
2.59999998,-27.10044000
2.63999998,-22.59896000
2.67999998,-22.59896000
2.71999998,-22.59896000
2.75999998,-18.11273000
2.79999998,-18.11273000
2.83999998,-13.62651000
2.87999998,-9.12503300
2.91999998,-4.63881300
2.95999998,-0.15259250
2.99999998,4.33362800
3.03999998,13.32133000
3.07999998,13.32133000
3.11999998,17.80755000
3.15999998,26.79525000
3.19999998,35.78295000
3.23999998,44.75539000
3.27999998,53.74309000
3.31999998,76.20471000
3.35999998,103.15250000
3.39999998,107.65400000
3.43999998,107.65400000
3.47999998,107.65400000
3.51999998,107.65400000
3.55999998,103.15250000
3.59999998,85.19241000
3.63999998,76.20471000
3.67999998,71.71850000
3.71999998,58.24457000
3.75999998,49.25687000
3.79999998,40.26917000
3.83999998,31.28147000
3.87999998,17.80755000
3.91999998,4.33362800
3.95999998,-4.63881300
3.99999998,-18.11273000
4.03999998,-27.10044000
4.07999998,-40.57436000
4.11999997,-54.04828000
4.15999997,-58.54976000
4.19999997,-67.52220000
4.23999997,-72.02368000
4.27999997,-72.02368000
4.31999997,-72.02368000
4.35999997,-76.50990000
4.39999997,-72.02368000
4.43999997,-67.52220000
4.47999997,-63.03598000
4.51999997,-58.54976000
4.55999997,-54.04828000
4.59999997,-54.04828000
4.63999997,-45.06058000
4.67999997,-40.57436000
4.71999997,-40.57436000
4.75999997,-36.08813000
4.79999997,-36.08813000
4.83999997,-36.08813000
4.87999997,-31.58666000
4.91999997,-22.59896000
4.95999997,-22.59896000
4.99999997,-18.11273000
5.03999997,-13.62651000
5.07999997,-4.63881300
5.11999997,-0.15259250
5.15999997,8.81984900
5.19999997,17.80755000
5.23999997,26.79525000
5.27999997,35.78295000
5.31999997,40.26917000
5.35999997,53.74309000
5.39999997,67.21701000
5.43999997,80.70620000
5.47999997,89.67863000
5.51999997,98.66634000
5.55999997,103.15250000
5.59999997,98.66634000
5.63999997,98.66634000
5.67999997,89.67863000
5.71999997,89.67863000
5.75999996,80.70620000
5.79999996,71.71850000
5.83999996,67.21701000
5.87999996,53.74309000
5.91999996,44.75539000
5.95999996,31.28147000
5.99999996,22.29377000
6.03999996,13.32133000
6.07999996,-0.15259250
6.11999996,-4.63881300
6.15999996,-18.11273000
6.19999996,-27.10044000
6.23999996,-36.08813000
6.27999996,-49.56206000
6.31999996,-58.54976000
6.35999996,-67.52220000
6.39999996,-72.02368000
6.43999996,-76.50990000
6.47999996,-76.50990000
6.51999996,-76.50990000
6.55999996,-76.50990000
6.59999996,-72.02368000
6.63999996,-72.02368000
6.67999996,-67.52220000
6.71999996,-58.54976000
6.75999996,-54.04828000
6.79999996,-54.04828000
6.83999996,-45.06058000
6.87999996,-40.57436000
6.91999996,-36.08813000
6.95999996,-31.58666000
6.99999996,-31.58666000
7.03999996,-22.59896000
7.07999996,-22.59896000
7.11999996,-13.62651000
7.15999996,-9.12503300
7.19999996,-4.63881300
7.23999996,-0.15259250
7.27999996,8.81984900
7.31999996,17.80755000
7.35999996,26.79525000
7.39999996,31.28147000
7.43999995,35.78295000
7.47999995,44.75539000
7.51999995,53.74309000
7.55999995,67.21701000
7.59999995,76.20471000
7.63999995,89.67863000
7.67999995,94.18011000
7.71999995,98.66634000
7.75999995,98.66634000
7.79999995,94.18011000
7.83999995,89.67863000
7.87999995,85.19241000
7.91999995,80.70620000
7.95999995,71.71850000
7.99999995,62.73079000
8.03999995,53.74309000
8.07999995,35.78295000
8.11999995,22.29377000
8.15999995,17.80755000
8.19999995,8.81984900
8.23999995,-0.15259250
8.27999995,-9.12503300
8.31999995,-22.59896000
8.35999995,-31.58666000
8.39999995,-45.06058000
8.43999995,-54.04828000
8.47999995,-63.03598000
8.51999995,-72.02368000
8.55999995,-76.50990000
8.59999995,-76.50990000
8.63999995,-81.01138000
8.67999995,-76.50990000
8.71999995,-72.02368000
8.75999995,-67.52220000
8.79999995,-63.03598000
8.83999995,-54.04828000
8.87999995,-45.06058000
8.91999995,-40.57436000
8.95999995,-40.57436000
8.99999995,-36.08813000
9.03999995,-36.08813000
9.07999994,-36.08813000
9.11999994,-36.08813000
9.15999994,-27.10044000
9.19999994,-27.10044000
9.23999994,-22.59896000
9.27999994,-18.11273000
9.31999994,-9.12503300
9.35999994,-0.15259250
9.39999994,8.81984900
9.43999994,13.32133000
9.47999994,17.80755000
9.51999994,26.79525000
9.55999994,35.78295000
9.59999994,49.25687000
9.63999994,53.74309000
9.67999994,67.21701000
9.71999994,85.19241000
9.75999994,89.67863000
9.79999994,98.66634000
9.83999994,103.15250000
9.87999994,103.15250000
9.91999994,98.66634000
9.95999994,94.18011000
9.99999994,89.67863000
10.03999994,80.70620000
10.07999994,71.71850000
10.11999994,62.73079000
10.15999994,53.74309000
10.19999994,40.26917000
10.23999994,31.28147000
10.27999994,17.80755000
10.31999994,8.81984900
10.35999994,-0.15259250
10.39999994,-9.12503300
10.43999994,-22.59896000
10.47999994,-36.08813000
10.51999994,-45.06058000
10.55999994,-54.04828000
10.59999994,-63.03598000
10.63999994,-72.02368000
10.67999994,-76.50990000
10.71999993,-81.01138000
10.75999993,-81.01138000
10.79999993,-81.01138000
10.83999993,-72.02368000
10.87999993,-72.02368000
10.91999993,-63.03598000
10.95999993,-58.54976000
10.99999993,-54.04828000
11.03999993,-49.56206000
11.07999993,-40.57436000
11.11999993,-36.08813000
11.15999993,-36.08813000
11.19999993,-31.58666000
11.23999993,-31.58666000
11.27999993,-22.59896000
11.31999993,-22.59896000
11.35999993,-18.11273000
11.39999993,-9.12503300
11.43999993,-4.63881300
11.47999993,-0.15259250
11.51999993,8.81984900
11.55999993,13.32133000
11.59999993,17.80755000
11.63999993,26.79525000
11.67999993,35.78295000
11.71999993,44.75539000
11.75999993,53.74309000
11.79999993,67.21701000
11.83999993,80.70620000
11.87999993,89.67863000
11.91999993,98.66634000
11.95999993,103.15250000
11.99999993,103.15250000
12.03999993,98.66634000
12.07999993,89.67863000
12.11999993,85.19241000
12.15999993,80.70620000
12.19999993,71.71850000
12.23999993,62.73079000
12.27999993,53.74309000
12.31999993,40.26917000
12.35999992,31.28147000
12.39999992,17.80755000
12.43999992,8.81984900
12.47999992,-0.15259250
12.51999992,-9.12503300
12.55999992,-22.59896000
12.59999992,-31.58666000
12.63999992,-40.57436000
12.67999992,-54.04828000
12.71999992,-63.03598000
12.75999992,-72.02368000
12.79999992,-76.50990000
12.83999992,-81.01138000
12.87999992,-76.50990000
12.91999992,-76.50990000
12.95999992,-72.02368000
12.99999992,-63.03598000
13.03999992,-54.04828000
13.07999992,-63.03598000
13.11999992,-58.54976000
13.15999992,-45.06058000
13.19999992,-40.57436000
13.23999992,-40.57436000
13.27999992,-40.57436000
13.31999992,-36.08813000
13.35999992,-31.58666000
13.39999992,-27.10044000
13.43999992,-27.10044000
13.47999992,-22.59896000
13.51999992,-13.62651000
13.55999992,-9.12503300
13.59999992,-0.15259250
13.63999992,4.33362800
13.67999992,13.32133000
13.71999992,17.80755000
13.75999992,31.28147000
13.79999992,35.78295000
13.83999992,44.75539000
13.87999992,53.74309000
13.91999992,67.21701000
13.95999992,76.20471000
13.99999991,89.67863000
14.03999991,94.18011000
14.07999991,103.15250000
14.11999991,103.15250000
14.15999991,103.15250000
14.19999991,94.18011000
14.23999991,89.67863000
14.27999991,80.70620000
14.31999991,71.71850000
14.35999991,62.73079000
14.39999991,53.74309000
14.43999991,40.26917000
14.47999991,31.28147000
14.51999991,17.80755000
14.55999991,8.81984900
14.59999991,-0.15259250
14.63999991,-9.12503300
14.67999991,-22.59896000
14.71999991,-31.58666000
14.75999991,-40.57436000
14.79999991,-54.04828000
14.83999991,-63.03598000
14.87999991,-72.02368000
14.91999991,-76.50990000
14.95999991,-81.01138000
14.99999991,-81.01138000
15.03999991,-81.01138000
15.07999991,-76.50990000
15.11999991,-72.02368000
15.15999991,-63.03598000
15.19999991,-58.54976000
15.23999991,-54.04828000
15.27999991,-49.56206000
15.31999991,-40.57436000
15.35999991,-40.57436000
15.39999991,-36.08813000
15.43999991,-31.58666000
15.47999991,-27.10044000
15.51999991,-22.59896000
15.55999991,-18.11273000
15.59999991,-4.63881300
15.63999990,13.32133000
15.67999990,13.32133000
15.71999990,-0.15259250
15.75999990,-4.63881300
15.79999990,-0.15259250
15.83999990,-0.15259250
15.87999990,-9.12503300
15.91999990,-4.63881300
15.95999990,8.81984900
15.99999990,35.78295000
16.03999990,58.24457000
16.07999990,76.20471000
16.11999990,89.67863000
16.15999990,103.15250000
16.19999990,121.12800000
16.23999990,121.12800000
16.27999990,112.14030000
16.31999990,103.15250000
16.35999990,98.66634000
16.39999990,98.66634000
16.43999990,85.19241000
16.47999990,71.71850000
16.51999990,53.74309000
16.55999990,44.75539000
16.59999990,35.78295000
16.63999990,22.29377000
16.67999990,8.81984900
16.71999990,-0.15259250
16.75999990,-13.62651000
16.79999990,-22.59896000
16.83999990,-36.08813000
16.87999990,-49.56206000
16.91999990,-63.03598000
16.95999990,-72.02368000
16.99999990,-76.50990000
17.03999990,-76.50990000
17.07999990,-76.50990000
17.11999990,-76.50990000
17.15999990,-67.52220000
17.19999990,-58.54976000
17.23999990,-54.04828000
17.27999989,-54.04828000
17.31999989,-54.04828000
17.35999989,-54.04828000
17.39999989,-49.56206000
17.43999989,-45.06058000
17.47999989,-45.06058000
17.51999989,-40.57436000
17.55999989,-36.08813000
17.59999989,-36.08813000
17.63999989,-27.10044000
17.67999989,-27.10044000
17.71999989,-22.59896000
17.75999989,-22.59896000
17.79999989,-18.11273000
17.83999989,-9.12503300
17.87999989,-0.15259250
17.91999989,4.33362800
17.95999989,13.32133000
17.99999989,26.79525000
18.03999989,35.78295000
18.07999989,49.25687000
18.11999989,58.24457000
18.15999989,67.21701000
18.19999989,80.70620000
18.23999989,89.67863000
18.27999989,98.66634000
18.31999989,103.15250000
18.35999989,103.15250000
18.39999989,103.15250000
18.43999989,94.18011000
18.47999989,89.67863000
18.51999989,80.70620000
18.55999989,76.20471000
18.59999989,62.73079000
18.63999989,53.74309000
18.67999989,44.75539000
18.71999989,35.78295000
18.75999989,26.79525000
18.79999989,13.32133000
18.83999989,-0.15259250
18.87999989,-9.12503300
18.91999989,-18.11273000
18.95999988,-31.58666000
18.99999988,-40.57436000
19.03999988,-49.56206000
19.07999988,-58.54976000
19.11999988,-63.03598000
19.15999988,-72.02368000
19.19999988,-72.02368000
19.23999988,-72.02368000
19.27999988,-72.02368000
19.31999988,-67.52220000
19.35999988,-63.03598000
19.39999988,-63.03598000
19.43999988,-54.04828000
19.47999988,-49.56206000
19.51999988,-45.06058000
19.55999988,-49.56206000
19.59999988,-45.06058000
19.63999988,-36.08813000
19.67999988,-36.08813000
19.71999988,-36.08813000
19.75999988,-36.08813000
19.79999988,-27.10044000
19.83999988,-22.59896000
19.87999988,-18.11273000
19.91999988,-9.12503300
19.95999988,-4.63881300
19.99999988,-0.15259250
20.03999988,8.81984900
20.07999988,17.80755000
20.11999988,26.79525000
20.15999988,31.28147000
20.19999988,40.26917000
20.23999988,53.74309000
20.27999988,62.73079000
20.31999988,71.71850000
20.35999988,85.19241000
20.39999988,94.18011000
20.43999988,103.15250000
20.47999988,103.15250000
20.51999988,98.66634000
20.55999988,94.18011000
20.59999987,89.67863000
20.63999987,85.19241000
20.67999987,71.71850000
20.71999987,67.21701000
20.75999987,53.74309000
20.79999987,44.75539000
20.83999987,35.78295000
20.87999987,22.29377000
20.91999987,13.32133000
20.95999987,-0.15259250
20.99999987,-4.63881300
21.03999987,-18.11273000
21.07999987,-27.10044000
21.11999987,-40.57436000
21.15999987,-49.56206000
21.19999987,-63.03598000
21.23999987,-67.52220000
21.27999987,-72.02368000
21.31999987,-76.50990000
21.35999987,-76.50990000
21.39999987,-72.02368000
21.43999987,-72.02368000
21.47999987,-63.03598000
21.51999987,-58.54976000
21.55999987,-54.04828000
21.59999987,-49.56206000
21.63999987,-45.06058000
21.67999987,-40.57436000
21.71999987,-40.57436000
21.75999987,-36.08813000
21.79999987,-36.08813000
21.83999987,-31.58666000
21.87999987,-27.10044000
21.91999987,-27.10044000
21.95999987,-18.11273000
21.99999987,-18.11273000
22.03999987,-9.12503300
22.07999987,-0.15259250
22.11999987,4.33362800
22.15999987,13.32133000
22.19999987,17.80755000
22.23999986,31.28147000
22.27999986,40.26917000
22.31999986,44.75539000
22.35999986,58.24457000
22.39999986,67.21701000
22.43999986,80.70620000
22.47999986,89.67863000
22.51999986,98.66634000
22.55999986,98.66634000
22.59999986,103.15250000
22.63999986,98.66634000
22.67999986,89.67863000
22.71999986,89.67863000
22.75999986,80.70620000
22.79999986,71.71850000
22.83999986,58.24457000
22.87999986,53.74309000
22.91999986,35.78295000
22.95999986,17.80755000
22.99999986,17.80755000
23.03999986,13.32133000
23.07999986,-0.15259250
23.11999986,-18.11273000
23.15999986,-22.59896000
23.19999986,-31.58666000
23.23999986,-45.06058000
23.27999986,-58.54976000
23.31999986,-67.52220000
23.35999986,-72.02368000
23.39999986,-76.50990000
23.43999986,-76.50990000
23.47999986,-76.50990000
23.51999986,-72.02368000
23.55999986,-72.02368000
23.59999986,-63.03598000
23.63999986,-58.54976000
23.67999986,-54.04828000
23.71999986,-54.04828000
23.75999986,-49.56206000
23.79999986,-45.06058000
23.83999986,-45.06058000
23.87999985,-40.57436000
23.91999985,-36.08813000
23.95999985,-31.58666000
23.99999985,-27.10044000
24.03999985,-22.59896000
24.07999985,-18.11273000
24.11999985,-13.62651000
24.15999985,-4.63881300
24.19999985,-0.15259250
24.23999985,8.81984900
24.27999985,17.80755000
24.31999985,22.29377000
24.35999985,31.28147000
24.39999985,35.78295000
24.43999985,44.75539000
24.47999985,53.74309000
24.51999985,67.21701000
24.55999985,80.70620000
24.59999985,89.67863000
24.63999985,94.18011000
24.67999985,98.66634000
24.71999985,103.15250000
24.75999985,98.66634000
24.79999985,89.67863000
24.83999985,85.19241000
24.87999985,80.70620000
24.91999985,71.71850000
24.95999985,62.73079000
24.99999985,49.25687000
25.03999985,35.78295000
25.07999985,26.79525000
25.11999985,17.80755000
25.15999985,4.33362800
25.19999985,-4.63881300
25.23999985,-13.62651000
25.27999985,-22.59896000
25.31999985,-36.08813000
25.35999985,-45.06058000
25.39999985,-54.04828000
25.43999985,-63.03598000
25.47999985,-72.02368000
25.51999984,-76.50990000
25.55999984,-76.50990000
25.59999984,-81.01138000
25.63999984,-76.50990000
25.67999984,-72.02368000
25.71999984,-67.52220000
25.75999984,-63.03598000
25.79999984,-58.54976000
25.83999984,-54.04828000
25.87999984,-49.56206000
25.91999984,-45.06058000
25.95999984,-40.57436000
25.99999984,-36.08813000
26.03999984,-36.08813000
26.07999984,-31.58666000
26.11999984,-27.10044000
26.15999984,-22.59896000
26.19999984,-22.59896000
26.23999984,-18.11273000
26.27999984,-9.12503300
26.31999984,-0.15259250
26.35999984,8.81984900
26.39999984,13.32133000
26.43999984,22.29377000
26.47999984,31.28147000
26.51999984,35.78295000
26.55999984,44.75539000
26.59999984,53.74309000
26.63999984,67.21701000
26.67999984,76.20471000
26.71999984,85.19241000
26.75999984,89.67863000
26.79999984,98.66634000
26.83999984,103.15250000
26.87999984,98.66634000
26.91999984,94.18011000
26.95999984,89.67863000
26.99999984,80.70620000
27.03999984,71.71850000
27.07999984,62.73079000
27.11999984,53.74309000
27.15999983,44.75539000
27.19999983,31.28147000
27.23999983,17.80755000
27.27999983,13.32133000
27.31999983,-0.15259250
27.35999983,-9.12503300
27.39999983,-18.11273000
27.43999983,-31.58666000
27.47999983,-40.57436000
27.51999983,-54.04828000
27.55999983,-63.03598000
27.59999983,-67.52220000
27.63999983,-72.02368000
27.67999983,-72.02368000
27.71999983,-72.02368000
27.75999983,-72.02368000
27.79999983,-72.02368000
27.83999983,-67.52220000
27.87999983,-63.03598000
27.91999983,-54.04828000
27.95999983,-49.56206000
27.99999983,-49.56206000
28.03999983,-45.06058000
28.07999983,-40.57436000
28.11999983,-40.57436000
28.15999983,-36.08813000
28.19999983,-36.08813000
28.23999983,-31.58666000
28.27999983,-27.10044000
28.31999983,-22.59896000
28.35999983,-18.11273000
28.39999983,-9.12503300
28.43999983,-4.63881300
28.47999983,-0.15259250
28.51999983,13.32133000
28.55999983,17.80755000
28.59999983,26.79525000
28.63999983,35.78295000
28.67999983,44.75539000
28.71999983,53.74309000
28.75999983,62.73079000
28.79999982,76.20471000
28.83999982,89.67863000
28.87999982,98.66634000
28.91999982,107.65400000
28.95999982,107.65400000
28.99999982,103.15250000
29.03999982,94.18011000
29.07999982,89.67863000
29.11999982,85.19241000
29.15999982,80.70620000
29.19999982,67.21701000
29.23999982,58.24457000
29.27999982,44.75539000
29.31999982,35.78295000
29.35999982,26.79525000
29.39999982,13.32133000
29.43999982,-0.15259250
29.47999982,-4.63881300
29.51999982,-18.11273000
29.55999982,-27.10044000
29.59999982,-40.57436000
29.63999982,-54.04828000
29.67999982,-58.54976000
29.71999982,-67.52220000
29.75999982,-72.02368000
29.79999982,-76.50990000
29.83999982,-81.01138000
29.87999982,-76.50990000
29.91999982,-76.50990000
29.95999982,-72.02368000
29.99999982,-67.52220000
30.03999982,-58.54976000
30.07999982,-54.04828000
30.11999982,-49.56206000
30.15999982,-45.06058000
30.19999982,-45.06058000
30.23999982,-36.08813000
30.27999982,-36.08813000
30.31999982,-31.58666000
30.35999982,-27.10044000
30.39999982,-22.59896000
30.43999982,-22.59896000
30.47999981,-13.62651000
30.51999981,-9.12503300
30.55999981,-4.63881300
30.59999981,-0.15259250
30.63999981,13.32133000
30.67999981,17.80755000
30.71999981,26.79525000
30.75999981,31.28147000
30.79999981,40.26917000
30.83999981,49.25687000
30.87999981,58.24457000
30.91999981,71.71850000
30.95999981,80.70620000
30.99999981,89.67863000
31.03999981,94.18011000
31.07999981,98.66634000
31.11999981,98.66634000
31.15999981,94.18011000
31.19999981,89.67863000
31.23999981,85.19241000
31.27999981,76.20471000
31.31999981,67.21701000
31.35999981,58.24457000
31.39999981,49.25687000
31.43999981,35.78295000
31.47999981,26.79525000
31.51999981,17.80755000
31.55999981,8.81984900
31.59999981,-4.63881300
31.63999981,-13.62651000
31.67999981,-22.59896000
