Time	Channel A
(us)	(mV)

0.00000000	26.95395000
0.04000000	30.54292000
0.08000000	34.13800000
0.12000000	35.93859000
0.16000000	37.73308000
0.20000000	41.32816000
0.24000000	44.92325000
0.28000000	48.51222000
0.32000000	52.10730000
0.36000000	57.50298000
0.40000000	61.09195000
0.44000000	64.68703000
0.48000000	68.28211000
0.52000000	71.87719000
0.56000000	71.87719000
0.60000000	71.87719000
0.64000000	71.87719000
0.68000000	70.07660000
0.72000000	64.68703000
0.76000000	61.09195000
0.80000000	55.70238000
0.83999999	48.51222000
0.87999999	41.32816000
0.91999999	34.13800000
0.95999999	26.95395000
0.99999999	19.76379000
1.03999999	12.57363000
1.07999999	3.58897700
1.11999999	-1.79448800
1.15999999	-7.18405700
1.19999999	-12.57363000
1.23999999	-17.96930000
1.27999999	-21.55827000
1.31999999	-25.15336000
1.35999999	-28.74844000
1.39999999	-30.54292000
1.43999999	-34.13800000
1.47999999	-35.93859000
1.51999999	-37.73308000
1.55999999	-41.32816000
1.59999999	-43.12265000
1.63999999	-46.71774000
1.67999999	-50.31281000
1.71999999	-52.10730000
1.75999999	-55.70238000
1.79999999	-59.29746000
1.83999999	-61.09195000
1.87999999	-64.68703000
1.91999999	-64.68703000
1.95999999	-66.48762000
1.99999999	-64.68703000
2.03999999	-64.68703000
2.07999999	-61.09195000
2.11999999	-57.50298000
2.15999999	-52.10730000
2.19999999	-44.92325000
2.23999999	-41.32816000
2.27999999	-32.34352000
2.31999999	-25.15336000
2.35999999	-16.16870000
2.39999999	-8.98464900
2.43999999	-1.79448800
2.47999998	1.79448800
2.51999998	5.38956800
2.55999998	17.96930000
2.59999998	25.15336000
2.63999998	26.95395000
2.67999998	30.54292000
2.71999998	32.34352000
2.75999998	37.73308000
2.79999998	39.52757000
2.83999998	43.12265000
2.87999998	46.71774000
2.91999998	50.31281000
2.95999998	52.10730000
2.99999998	55.70238000
3.03999998	61.09195000
3.07999998	64.68703000
3.11999998	66.48762000
3.15999998	70.07660000
3.19999998	71.87719000
3.23999998	71.87719000
3.27999998	70.07660000
3.31999998	70.07660000
3.35999998	66.48762000
3.39999998	61.09195000
3.43999998	55.70238000
3.47999998	50.31281000
3.51999998	43.12265000
3.55999998	34.13800000
3.59999998	28.74844000
3.63999998	21.55827000
3.67999998	14.37422000
3.71999998	7.18405700
3.75999998	0.00000000
3.79999998	-5.38956800
3.83999998	-10.77914000
3.87999998	-16.16870000
3.91999998	-21.55827000
3.95999998	-25.15336000
3.99999998	-28.74844000
4.03999998	-30.54292000
4.07999998	-32.34352000
4.11999997	-35.93859000
4.15999997	-39.52757000
4.19999997	-41.32816000
4.23999997	-43.12265000
4.27999997	-46.71774000
4.31999997	-50.31281000
4.35999997	-52.10730000
4.39999997	-57.50298000
4.43999997	-59.29746000
4.47999997	-61.09195000
4.51999997	-64.68703000
4.55999997	-64.68703000
4.59999997	-64.68703000
4.63999997	-64.68703000
4.67999997	-62.89254000
4.71999997	-61.09195000
4.75999997	-57.50298000
4.79999997	-52.10730000
4.83999997	-46.71774000
4.87999997	-41.32816000
4.91999997	-34.13800000
4.95999997	-25.15336000
4.99999997	-19.76379000
5.03999997	-12.57363000
5.07999997	-5.38956800
5.11999997	1.79448800
5.15999997	8.98464900
5.19999997	14.37422000
5.23999997	21.55827000
5.27999997	25.15336000
5.31999997	28.74844000
5.35999997	34.13800000
5.39999997	35.93859000
5.43999997	39.52757000
5.47999997	43.12265000
5.51999997	46.71774000
5.55999997	50.31281000
5.59999997	53.90789000
5.63999997	57.50298000
5.67999997	59.29746000
5.71999997	64.68703000
5.75999996	68.28211000
5.79999996	70.07660000
5.83999996	71.87719000
5.87999996	71.87719000
5.91999996	71.87719000
5.95999996	70.07660000
5.99999996	64.68703000
6.03999996	61.09195000
6.07999996	55.70238000
6.11999996	50.31281000
6.15999996	43.12265000
6.19999996	35.93859000
6.23999996	28.74844000
6.27999996	21.55827000
6.31999996	14.37422000
6.35999996	7.18405700
6.39999996	0.00000000
6.43999996	-5.38956800
6.47999996	-10.77914000
6.51999996	-14.37422000
6.55999996	-19.76379000
6.59999996	-23.35887000
6.63999996	-26.95395000
6.67999996	-30.54292000
6.71999996	-32.34352000
6.75999996	-35.93859000
6.79999996	-37.73308000
6.83999996	-41.32816000
6.87999996	-44.92325000
6.91999996	-46.71774000
6.95999996	-50.31281000
6.99999996	-52.10730000
7.03999996	-57.50298000
7.07999996	-59.29746000
7.11999996	-61.09195000
7.15999996	-62.89254000
7.19999996	-64.68703000
7.23999996	-64.68703000
7.27999996	-64.68703000
7.31999996	-62.89254000
7.35999996	-61.09195000
7.39999996	-55.70238000
7.43999995	-50.31281000
7.47999995	-55.70238000
7.51999995	-41.32816000
7.55999995	-28.74844000
7.59999995	-23.35887000
7.63999995	-21.55827000
7.67999995	-14.37422000
7.71999995	-5.38956800
7.75999995	3.58897700
7.79999995	7.18405700
7.83999995	14.37422000
7.87999995	19.76379000
7.91999995	25.15336000
7.95999995	28.74844000
7.99999995	32.34352000
8.03999995	35.93859000
8.07999995	35.93859000
8.11999995	41.32816000
8.15999995	43.12265000
8.19999995	48.51222000
8.23999995	50.31281000
8.27999995	53.90789000
8.31999995	59.29746000
8.35999995	62.89254000
8.39999995	66.48762000
8.43999995	70.07660000
8.47999995	71.87719000
8.51999995	71.87719000
8.55999995	71.87719000
8.59999995	70.07660000
8.63999995	66.48762000
8.67999995	62.89254000
8.71999995	57.50298000
8.75999995	52.10730000
8.79999995	44.92325000
8.83999995	35.93859000
8.87999995	30.54292000
8.91999995	23.35887000
8.95999995	16.16870000
8.99999995	8.98464900
9.03999995	3.58897700
9.07999994	-1.79448800
9.11999994	-7.18405700
9.15999994	-14.37422000
9.19999994	-19.76379000
9.23999994	-21.55827000
9.27999994	-25.15336000
9.31999994	-28.74844000
9.35999994	-32.34352000
9.39999994	-34.13800000
9.43999994	-37.73308000
9.47999994	-39.52757000
9.51999994	-43.12265000
9.55999994	-44.92325000
9.59999994	-50.31281000
9.63999994	-52.10730000
9.67999994	-55.70238000
9.71999994	-57.50298000
9.75999994	-61.09195000
9.79999994	-64.68703000
9.83999994	-64.68703000
9.87999994	-64.68703000
9.91999994	-64.68703000
9.95999994	-64.68703000
9.99999994	-62.89254000
10.03999994	-59.29746000
10.07999994	-55.70238000
10.11999994	-50.31281000
10.15999994	-43.12265000
10.19999994	-37.73308000
10.23999994	-28.74844000
10.27999994	-21.55827000
10.31999994	-14.37422000
10.35999994	-7.18405700
10.39999994	0.00000000
10.43999994	7.18405700
10.47999994	12.57363000
10.51999994	17.96930000
10.55999994	23.35887000
10.59999994	28.74844000
10.63999994	30.54292000
10.67999994	34.13800000
10.71999993	35.93859000
10.75999993	41.32816000
10.79999993	43.12265000
10.83999993	48.51222000
10.87999993	50.31281000
10.91999993	55.70238000
10.95999993	57.50298000
10.99999993	62.89254000
11.03999993	64.68703000
11.07999993	70.07660000
11.11999993	71.87719000
11.15999993	71.87719000
11.19999993	71.87719000
11.23999993	71.87719000
11.27999993	68.28211000
11.31999993	64.68703000
11.35999993	59.29746000
11.39999993	53.90789000
11.43999993	46.71774000
11.47999993	39.52757000
11.51999993	32.34352000
11.55999993	25.15336000
11.59999993	16.16870000
11.63999993	10.77914000
11.67999993	3.58897700
11.71999993	-1.79448800
11.75999993	-8.98464900
11.79999993	-12.57363000
11.83999993	-17.96930000
11.87999993	-21.55827000
11.91999993	-25.15336000
11.95999993	-28.74844000
11.99999993	-32.34352000
12.03999993	-34.13800000
12.07999993	-37.73308000
12.11999993	-39.52757000
12.15999993	-43.12265000
12.19999993	-44.92325000
12.23999993	-48.51222000
12.27999993	-52.10730000
12.31999993	-55.70238000
12.35999992	-61.09195000
12.39999992	-64.68703000
12.43999992	-61.09195000
12.47999992	-61.09195000
12.51999992	-64.68703000
12.55999992	-66.48762000
12.59999992	-64.68703000
12.63999992	-62.89254000
12.67999992	-59.29746000
12.71999992	-55.70238000
12.75999992	-50.31281000
12.79999992	-43.12265000
12.83999992	-37.73308000
12.87999992	-30.54292000
12.91999992	-21.55827000
12.95999992	-16.16870000
12.99999992	-8.98464900
13.03999992	-1.79448800
13.07999992	5.38956800
13.11999992	12.57363000
13.15999992	17.96930000
13.19999992	21.55827000
13.23999992	26.95395000
13.27999992	32.34352000
13.31999992	35.93859000
13.35999992	37.73308000
13.39999992	41.32816000
13.43999992	43.12265000
13.47999992	46.71774000
13.51999992	50.31281000
13.55999992	55.70238000
13.59999992	59.29746000
13.63999992	62.89254000
13.67999992	66.48762000
13.71999992	68.28211000
13.75999992	71.87719000
13.79999992	71.87719000
13.83999992	73.67168000
13.87999992	70.07660000
13.91999992	70.07660000
13.95999992	64.68703000
13.99999991	61.09195000
14.03999991	53.90789000
14.07999991	46.71774000
14.11999991	41.32816000
14.15999991	34.13800000
14.19999991	26.95395000
14.23999991	19.76379000
14.27999991	12.57363000
14.31999991	3.58897700
14.35999991	-1.79448800
14.39999991	-7.18405700
14.43999991	-12.57363000
14.47999991	-16.16870000
14.51999991	-21.55827000
14.55999991	-23.35887000
14.59999991	-28.74844000
14.63999991	-32.34352000
14.67999991	-34.13800000
14.71999991	-35.93859000
14.75999991	-39.52757000
14.79999991	-43.12265000
14.83999991	-44.92325000
14.87999991	-48.51222000
14.91999991	-52.10730000
14.95999991	-53.90789000
14.99999991	-57.50298000
15.03999991	-61.09195000
15.07999991	-62.89254000
15.11999991	-64.68703000
15.15999991	-64.68703000
15.19999991	-64.68703000
15.23999991	-64.68703000
15.27999991	-62.89254000
15.31999991	-59.29746000
15.35999991	-55.70238000
15.39999991	-50.31281000
15.43999991	-44.92325000
15.47999991	-37.73308000
15.51999991	-32.34352000
15.55999991	-23.35887000
15.59999991	-16.16870000
15.63999990	-8.98464900
15.67999990	-1.79448800
15.71999990	3.58897700
15.75999990	10.77914000
15.79999990	16.16870000
15.83999990	21.55827000
15.87999990	26.95395000
15.91999990	30.54292000
15.95999990	34.13800000
15.99999990	37.73308000
16.03999990	39.52757000
16.07999990	44.92325000
16.11999990	46.71774000
16.15999990	48.51222000
16.19999990	53.90789000
16.23999990	57.50298000
16.27999990	61.09195000
16.31999990	64.68703000
16.35999990	68.28211000
16.39999990	71.87719000
16.43999990	71.87719000
16.47999990	71.87719000
16.51999990	71.87719000
16.55999990	70.07660000
16.59999990	66.48762000
16.63999990	61.09195000
16.67999990	55.70238000
16.71999990	50.31281000
16.75999990	43.12265000
16.79999990	34.13800000
16.83999990	28.74844000
16.87999990	19.76379000
16.91999990	12.57363000
16.95999990	5.38956800
16.99999990	0.00000000
17.03999990	-5.38956800
17.07999990	-10.77914000
17.11999990	-14.37422000
17.15999990	-21.55827000
17.19999990	-23.35887000
17.23999990	-28.74844000
17.27999989	-28.74844000
17.31999989	-39.52757000
17.35999989	-37.73308000
17.39999989	-35.93859000
17.43999989	-37.73308000
17.47999989	-44.92325000
17.51999989	-50.31281000
17.55999989	-52.10730000
17.59999989	-52.10730000
17.63999989	-57.50298000
17.67999989	-59.29746000
17.71999989	-61.09195000
17.75999989	-62.89254000
17.79999989	-66.48762000
17.83999989	-64.68703000
17.87999989	-64.68703000
17.91999989	-64.68703000
17.95999989	-61.09195000
17.99999989	-57.50298000
18.03999989	-52.10730000
18.07999989	-44.92325000
18.11999989	-41.32816000
18.15999989	-34.13800000
18.19999989	-25.15336000
18.23999989	-17.96930000
18.27999989	-10.77914000
18.31999989	-3.58897700
18.35999989	3.58897700
18.39999989	8.98464900
18.43999989	14.37422000
18.47999989	21.55827000
18.51999989	26.95395000
18.55999989	28.74844000
18.59999989	34.13800000
18.63999989	37.73308000
18.67999989	39.52757000
18.71999989	41.32816000
18.75999989	46.71774000
18.79999989	50.31281000
18.83999989	53.90789000
18.87999989	55.70238000
18.91999989	61.09195000
18.95999988	64.68703000
18.99999988	68.28211000
19.03999988	70.07660000
19.07999988	71.87719000
19.11999988	71.87719000
19.15999988	71.87719000
19.19999988	70.07660000
19.23999988	66.48762000
19.27999988	62.89254000
19.31999988	57.50298000
19.35999988	50.31281000
19.39999988	43.12265000
19.43999988	35.93859000
19.47999988	28.74844000
19.51999988	21.55827000
19.55999988	14.37422000
19.59999988	7.18405700
19.63999988	0.00000000
19.67999988	-5.38956800
19.71999988	-10.77914000
19.75999988	-14.37422000
19.79999988	-17.96930000
19.83999988	-23.35887000
19.87999988	-26.95395000
19.91999988	-30.54292000
19.95999988	-32.34352000
19.99999988	-35.93859000
20.03999988	-37.73308000
20.07999988	-41.32816000
20.11999988	-43.12265000
20.15999988	-46.71774000
20.19999988	-50.31281000
20.23999988	-52.10730000
20.27999988	-57.50298000
20.31999988	-59.29746000
20.35999988	-61.09195000
20.39999988	-62.89254000
20.43999988	-64.68703000
20.47999988	-66.48762000
20.51999988	-64.68703000
20.55999988	-64.68703000
20.59999987	-61.09195000
20.63999987	-57.50298000
20.67999987	-53.90789000
20.71999987	-48.51222000
20.75999987	-43.12265000
20.79999987	-35.93859000
20.83999987	-28.74844000
20.87999987	-21.55827000
20.91999987	-12.57363000
20.95999987	-5.38956800
20.99999987	1.79448800
21.03999987	7.18405700
21.07999987	14.37422000
21.11999987	21.55827000
21.15999987	25.15336000
21.19999987	28.74844000
21.23999987	32.34352000
21.27999987	35.93859000
21.31999987	39.52757000
21.35999987	43.12265000
21.39999987	44.92325000
21.43999987	48.51222000
21.47999987	50.31281000
21.51999987	57.50298000
21.55999987	61.09195000
21.59999987	64.68703000
21.63999987	66.48762000
21.67999987	70.07660000
21.71999987	71.87719000
21.75999987	71.87719000
21.79999987	71.87719000
21.83999987	70.07660000
21.87999987	66.48762000
21.91999987	62.89254000
21.95999987	57.50298000
21.99999987	52.10730000
22.03999987	44.92325000
22.07999987	37.73308000
22.11999987	30.54292000
22.15999987	23.35887000
22.19999987	12.57363000
22.23999986	5.38956800
22.27999986	3.58897700
22.31999986	0.00000000
22.35999986	-8.98464900
22.39999986	-14.37422000
22.43999986	-19.76379000
22.47999986	-21.55827000
22.51999986	-26.95395000
22.55999986	-28.74844000
22.59999986	-32.34352000
22.63999986	-34.13800000
22.67999986	-37.73308000
22.71999986	-41.32816000
22.75999986	-43.12265000
22.79999986	-46.71774000
22.83999986	-50.31281000
22.87999986	-52.10730000
22.91999986	-55.70238000
22.95999986	-59.29746000
22.99999986	-61.09195000
23.03999986	-62.89254000
23.07999986	-64.68703000
23.11999986	-64.68703000
23.15999986	-64.68703000
23.19999986	-64.68703000
23.23999986	-62.89254000
23.27999986	-59.29746000
23.31999986	-53.90789000
23.35999986	-48.51222000
23.39999986	-43.12265000
23.43999986	-35.93859000
23.47999986	-28.74844000
23.51999986	-21.55827000
23.55999986	-14.37422000
23.59999986	-7.18405700
23.63999986	0.00000000
23.67999986	7.18405700
23.71999986	12.57363000
23.75999986	19.76379000
23.79999986	23.35887000
23.83999986	28.74844000
23.87999985	30.54292000
23.91999985	35.93859000
23.95999985	37.73308000
23.99999985	41.32816000
24.03999985	43.12265000
24.07999985	48.51222000
24.11999985	52.10730000
24.15999985	55.70238000
24.19999985	59.29746000
24.23999985	62.89254000
24.27999985	66.48762000
24.31999985	70.07660000
24.35999985	71.87719000
24.39999985	71.87719000
24.43999985	71.87719000
24.47999985	71.87719000
24.51999985	68.28211000
24.55999985	64.68703000
24.59999985	59.29746000
24.63999985	52.10730000
24.67999985	46.71774000
24.71999985	39.52757000
24.75999985	32.34352000
24.79999985	25.15336000
24.83999985	17.96930000
24.87999985	8.98464900
24.91999985	3.58897700
24.95999985	-3.58897700
24.99999985	-8.98464900
25.03999985	-12.57363000
25.07999985	-17.96930000
25.11999985	-21.55827000
25.15999985	-25.15336000
25.19999985	-28.74844000
25.23999985	-32.34352000
25.27999985	-34.13800000
25.31999985	-37.73308000
25.35999985	-39.52757000
25.39999985	-43.12265000
25.43999985	-44.92325000
25.47999985	-50.31281000
25.51999984	-52.10730000
25.55999984	-55.70238000
25.59999984	-57.50298000
25.63999984	-59.29746000
25.67999984	-62.89254000
25.71999984	-64.68703000
25.75999984	-66.48762000
25.79999984	-64.68703000
25.83999984	-64.68703000
25.87999984	-62.89254000
25.91999984	-59.29746000
25.95999984	-53.90789000
25.99999984	-50.31281000
26.03999984	-43.12265000
26.07999984	-37.73308000
26.11999984	-30.54292000
26.15999984	-23.35887000
26.19999984	-14.37422000
26.23999984	-7.18405700
26.27999984	0.00000000
26.31999984	5.38956800
26.35999984	12.57363000
26.39999984	17.96930000
26.43999984	23.35887000
26.47999984	26.95395000
26.51999984	30.54292000
26.55999984	35.93859000
26.59999984	37.73308000
26.63999984	41.32816000
26.67999984	43.12265000
26.71999984	46.71774000
26.75999984	50.31281000
26.79999984	55.70238000
26.83999984	57.50298000
26.87999984	62.89254000
26.91999984	66.48762000
26.95999984	70.07660000
26.99999984	71.87719000
27.03999984	71.87719000
27.07999984	73.67168000
27.11999984	71.87719000
27.15999983	61.09195000
27.19999983	64.68703000
27.23999983	64.68703000
27.27999983	57.50298000
27.31999983	46.71774000
27.35999983	37.73308000
27.39999983	34.13800000
27.43999983	28.74844000
27.47999983	17.96930000
27.51999983	12.57363000
27.55999983	5.38956800
27.59999983	0.00000000
27.63999983	-7.18405700
27.67999983	-10.77914000
27.71999983	-16.16870000
27.75999983	-21.55827000
27.79999983	-25.15336000
27.83999983	-26.95395000
27.87999983	-30.54292000
27.91999983	-34.13800000
27.95999983	-37.73308000
27.99999983	-39.52757000
28.03999983	-41.32816000
28.07999983	-44.92325000
28.11999983	-48.51222000
28.15999983	-52.10730000
28.19999983	-53.90789000
28.23999983	-57.50298000
28.27999983	-61.09195000
28.31999983	-62.89254000
28.35999983	-64.68703000
28.39999983	-64.68703000
28.43999983	-66.48762000
28.47999983	-64.68703000
28.51999983	-62.89254000
28.55999983	-59.29746000
28.59999983	-55.70238000
28.63999983	-50.31281000
28.67999983	-44.92325000
28.71999983	-37.73308000
28.75999983	-32.34352000
28.79999982	-25.15336000
28.83999982	-16.16870000
28.87999982	-8.98464900
28.91999982	-1.79448800
28.95999982	3.58897700
28.99999982	10.77914000
29.03999982	16.16870000
29.07999982	21.55827000
29.11999982	26.95395000
29.15999982	30.54292000
29.19999982	34.13800000
29.23999982	37.73308000
29.27999982	41.32816000
29.31999982	43.12265000
29.35999982	44.92325000
29.39999982	48.51222000
29.43999982	53.90789000
29.47999982	57.50298000
29.51999982	61.09195000
29.55999982	64.68703000
29.59999982	68.28211000
29.63999982	71.87719000
29.67999982	71.87719000
29.71999982	71.87719000
29.75999982	71.87719000
29.79999982	70.07660000
29.83999982	64.68703000
29.87999982	57.50298000
29.91999982	44.92325000
29.95999982	30.54292000
29.99999982	19.76379000
30.03999982	12.57363000
30.07999982	10.77914000
30.11999982	14.37422000
30.15999982	21.55827000
30.19999982	28.74844000
30.23999982	34.13800000
30.27999982	34.13800000
30.31999982	28.74844000
30.35999982	14.37422000
30.39999982	-3.58897700
30.43999982	-17.96930000
30.47999981	-30.54292000
30.51999981	-39.52757000
30.55999981	-48.51222000
30.59999981	-52.10730000
30.63999981	-53.90789000
30.67999981	-53.90789000
30.71999981	-55.70238000
30.75999981	-59.29746000
30.79999981	-61.09195000
30.83999981	-62.89254000
30.87999981	-62.89254000
30.91999981	-66.48762000
30.95999981	-66.48762000
30.99999981	-66.48762000
31.03999981	-68.28211000
31.07999981	-66.48762000
31.11999981	-64.68703000
31.15999981	-59.29746000
31.19999981	-53.90789000
31.23999981	-46.71774000
31.27999981	-37.73308000
31.31999981	-30.54292000
31.35999981	-26.95395000
31.39999981	-21.55827000
31.43999981	-19.76379000
31.47999981	-17.96930000
31.51999981	-16.16870000
31.55999981	-12.57363000
31.59999981	-12.57363000
31.63999981	-14.37422000
31.67999981	-26.95395000
31.71999981	-12.57363000
31.75999981	19.76379000
