Time	Channel A
(us)	(mV)

0.00000000	-14.37422000
0.04000000	-5.38956800
0.08000000	3.58897700
0.12000000	10.77914000
0.16000000	19.76379000
0.20000000	28.74844000
0.24000000	35.93859000
0.28000000	43.12265000
0.32000000	50.31281000
0.36000000	61.09195000
0.40000000	71.87719000
0.44000000	82.65633000
0.48000000	93.44157000
0.52000000	100.62560000
0.56000000	107.81580000
0.60000000	109.61030000
0.64000000	107.81580000
0.68000000	104.22070000
0.72000000	98.83114000
0.76000000	89.84650000
0.80000000	82.65633000
0.83999999	71.87719000
0.87999999	59.29746000
0.91999999	46.71774000
0.95999999	35.93859000
0.99999999	26.95395000
1.03999999	17.96930000
1.07999999	5.38956800
1.11999999	-1.79448800
1.15999999	-8.98464900
1.19999999	-23.35887000
1.23999999	-35.93859000
1.27999999	-44.92325000
1.31999999	-59.29746000
1.35999999	-70.07660000
1.39999999	-79.06125000
1.43999999	-82.65633000
1.47999999	-80.86184000
1.51999999	-82.65633000
1.55999999	-77.26676000
1.59999999	-73.67168000
1.63999999	-71.87719000
1.67999999	-66.48762000
1.71999999	-61.09195000
1.75999999	-59.29746000
1.79999999	-55.70238000
1.83999999	-53.90789000
1.87999999	-50.31281000
1.91999999	-50.31281000
1.95999999	-50.31281000
1.99999999	-48.51222000
2.03999999	-46.71774000
2.07999999	-43.12265000
2.11999999	-37.73308000
2.15999999	-34.13800000
2.19999999	-26.95395000
2.23999999	-19.76379000
2.27999999	-10.77914000
2.31999999	-3.58897700
2.35999999	5.38956800
2.39999999	14.37422000
2.43999999	21.55827000
2.47999998	28.74844000
2.51999998	35.93859000
2.55999998	43.12265000
2.59999998	52.10730000
2.63999998	61.09195000
2.67999998	71.87719000
2.71999998	84.45692000
2.75999998	97.03055000
2.79999998	104.22070000
2.83999998	109.61030000
2.87999998	109.61030000
2.91999998	106.01520000
2.95999998	98.83114000
2.99999998	95.23605000
3.03999998	86.25141000
3.07999998	79.06125000
3.11999998	70.07660000
3.15999998	55.70238000
3.19999998	43.12265000
3.23999998	32.34352000
3.27999998	23.35887000
3.31999998	12.57363000
3.35999998	3.58897700
3.39999998	-5.38956800
3.43999998	-14.37422000
3.47999998	-26.95395000
3.51999998	-39.52757000
3.55999998	-52.10730000
3.59999998	-64.68703000
3.63999998	-73.67168000
3.67999998	-80.86184000
3.71999998	-88.04590000
3.75999998	-86.25141000
3.79999998	-84.45692000
3.83999998	-79.06125000
3.87999998	-73.67168000
3.91999998	-68.28211000
3.95999998	-64.68703000
3.99999998	-59.29746000
4.03999998	-55.70238000
4.07999998	-52.10730000
4.11999997	-48.51222000
4.15999997	-46.71774000
4.19999997	-46.71774000
4.23999997	-44.92325000
4.27999997	-43.12265000
4.31999997	-39.52757000
4.35999997	-44.92325000
4.39999997	-43.12265000
4.43999997	-34.13800000
4.47999997	-25.15336000
4.51999997	-17.96930000
4.55999997	-10.77914000
4.59999997	-1.79448800
4.63999997	7.18405700
4.67999997	16.16870000
4.71999997	25.15336000
4.75999997	32.34352000
4.79999997	41.32816000
4.83999997	48.51222000
4.87999997	59.29746000
4.91999997	68.28211000
4.95999997	79.06125000
4.99999997	89.84650000
5.03999997	100.62560000
5.07999997	107.81580000
5.11999997	109.61030000
5.15999997	107.81580000
5.19999997	106.01520000
5.23999997	100.62560000
5.27999997	91.64098000
5.31999997	82.65633000
5.35999997	73.67168000
5.39999997	62.89254000
5.43999997	50.31281000
5.47999997	39.52757000
5.51999997	28.74844000
5.55999997	17.96930000
5.59999997	8.98464900
5.63999997	0.00000000
5.67999997	-8.98464900
5.71999997	-21.55827000
5.75999996	-32.34352000
5.79999996	-44.92325000
5.83999996	-57.50298000
5.87999996	-68.28211000
5.91999996	-79.06125000
5.95999996	-84.45692000
5.99999996	-86.25141000
6.03999996	-84.45692000
6.07999996	-79.06125000
6.11999996	-71.87719000
6.15999996	-70.07660000
6.19999996	-62.89254000
6.23999996	-57.50298000
6.27999996	-55.70238000
6.31999996	-52.10730000
6.35999996	-50.31281000
6.39999996	-48.51222000
6.43999996	-48.51222000
6.47999996	-46.71774000
6.51999996	-46.71774000
6.55999996	-46.71774000
6.59999996	-43.12265000
6.63999996	-41.32816000
6.67999996	-35.93859000
6.71999996	-30.54292000
6.75999996	-23.35887000
6.79999996	-16.16870000
6.83999996	-5.38956800
6.87999996	3.58897700
6.91999996	12.57363000
6.95999996	21.55827000
6.99999996	30.54292000
7.03999996	39.52757000
7.07999996	46.71774000
7.11999996	55.70238000
7.15999996	64.68703000
7.19999996	75.47227000
7.23999996	88.04590000
7.27999996	98.83114000
7.31999996	106.01520000
7.35999996	109.61030000
7.39999996	111.41090000
7.43999995	107.81580000
7.47999995	102.42620000
7.51999995	97.03055000
7.55999995	88.04590000
7.59999995	79.06125000
7.63999995	68.28211000
7.67999995	57.50298000
7.71999995	46.71774000
7.75999995	35.93859000
7.79999995	25.15336000
7.83999995	14.37422000
7.87999995	7.18405700
7.91999995	-12.57363000
7.95999995	-23.35887000
7.99999995	-21.55827000
8.03999995	-32.34352000
8.07999995	-52.10730000
8.11999995	-66.48762000
8.15999995	-77.26676000
8.19999995	-79.06125000
8.23999995	-86.25141000
8.27999995	-82.65633000
8.31999995	-79.06125000
8.35999995	-70.07660000
8.39999995	-70.07660000
8.43999995	-64.68703000
8.47999995	-59.29746000
8.51999995	-57.50298000
8.55999995	-55.70238000
8.59999995	-52.10730000
8.63999995	-48.51222000
8.67999995	-48.51222000
8.71999995	-50.31281000
8.75999995	-48.51222000
8.79999995	-46.71774000
8.83999995	-46.71774000
8.87999995	-43.12265000
8.91999995	-37.73308000
8.95999995	-30.54292000
8.99999995	-26.95395000
9.03999995	-17.96930000
9.07999994	-10.77914000
9.11999994	-1.79448800
9.15999994	8.98464900
9.19999994	17.96930000
9.23999994	25.15336000
9.27999994	35.93859000
9.31999994	43.12265000
9.35999994	48.51222000
9.39999994	57.50298000
9.43999994	70.07660000
9.47999994	82.65633000
9.51999994	93.44157000
9.55999994	102.42620000
9.59999994	109.61030000
9.63999994	113.20540000
9.67999994	111.41090000
9.71999994	107.81580000
9.75999994	102.42620000
9.79999994	95.23605000
9.83999994	84.45692000
9.87999994	75.47227000
9.91999994	62.89254000
9.95999994	50.31281000
9.99999994	41.32816000
10.03999994	28.74844000
10.07999994	19.76379000
10.11999994	7.18405700
10.15999994	0.00000000
10.19999994	-8.98464900
10.23999994	-19.76379000
10.27999994	-32.34352000
10.31999994	-43.12265000
10.35999994	-55.70238000
10.39999994	-68.28211000
10.43999994	-77.26676000
10.47999994	-86.25141000
10.51999994	-88.04590000
10.55999994	-89.84650000
10.59999994	-80.86184000
10.63999994	-75.47227000
10.67999994	-68.28211000
10.71999993	-66.48762000
10.75999993	-59.29746000
10.79999993	-55.70238000
10.83999993	-52.10730000
10.87999993	-50.31281000
10.91999993	-48.51222000
10.95999993	-46.71774000
10.99999993	-46.71774000
11.03999993	-46.71774000
11.07999993	-44.92325000
11.11999993	-44.92325000
11.15999993	-43.12265000
11.19999993	-37.73308000
11.23999993	-28.74844000
11.27999993	-23.35887000
11.31999993	-14.37422000
11.35999993	-7.18405700
11.39999993	1.79448800
11.43999993	10.77914000
11.47999993	19.76379000
11.51999993	28.74844000
11.55999993	35.93859000
11.59999993	44.92325000
11.63999993	52.10730000
11.67999993	61.09195000
11.71999993	71.87719000
11.75999993	84.45692000
11.79999993	97.03055000
11.83999993	106.01520000
11.87999993	111.41090000
11.91999993	113.20540000
11.95999993	111.41090000
11.99999993	106.01520000
12.03999993	98.83114000
12.07999993	89.84650000
12.11999993	80.86184000
12.15999993	70.07660000
12.19999993	59.29746000
12.23999993	46.71774000
12.27999993	35.93859000
12.31999993	25.15336000
12.35999992	14.37422000
12.39999992	5.38956800
12.43999992	-1.79448800
12.47999992	-12.57363000
12.51999992	-23.35887000
12.55999992	-35.93859000
12.59999992	-48.51222000
12.63999992	-59.29746000
12.67999992	-71.87719000
12.71999992	-79.06125000
12.75999992	-88.04590000
12.79999992	-89.84650000
12.83999992	-86.25141000
12.87999992	-80.86184000
12.91999992	-75.47227000
12.95999992	-66.48762000
12.99999992	-61.09195000
13.03999992	-57.50298000
13.07999992	-52.10730000
13.11999992	-48.51222000
13.15999992	-44.92325000
13.19999992	-44.92325000
13.23999992	-44.92325000
13.27999992	-44.92325000
13.31999992	-44.92325000
13.35999992	-44.92325000
13.39999992	-43.12265000
13.43999992	-39.52757000
13.47999992	-35.93859000
13.51999992	-28.74844000
13.55999992	-21.55827000
13.59999992	-12.57363000
13.63999992	-3.58897700
13.67999992	3.58897700
13.71999992	12.57363000
13.75999992	21.55827000
13.79999992	28.74844000
13.83999992	37.73308000
13.87999992	44.92325000
13.91999992	55.70238000
13.95999992	70.07660000
13.99999991	80.86184000
14.03999991	88.04590000
14.07999991	98.83114000
14.11999991	107.81580000
14.15999991	115.00600000
14.19999991	115.00600000
14.23999991	109.61030000
14.27999991	102.42620000
14.31999991	97.03055000
14.35999991	86.25141000
14.39999991	77.26676000
14.43999991	64.68703000
14.47999991	53.90789000
14.51999991	43.12265000
14.55999991	32.34352000
14.59999991	21.55827000
14.63999991	12.57363000
14.67999991	1.79448800
14.71999991	-5.38956800
14.75999991	-16.16870000
14.79999991	-28.74844000
14.83999991	-39.52757000
14.87999991	-53.90789000
14.91999991	-64.68703000
14.95999991	-75.47227000
14.99999991	-82.65633000
15.03999991	-88.04590000
15.07999991	-82.65633000
15.11999991	-80.86184000
15.15999991	-73.67168000
15.19999991	-71.87719000
15.23999991	-64.68703000
15.27999991	-61.09195000
15.31999991	-57.50298000
15.35999991	-52.10730000
15.39999991	-48.51222000
15.43999991	-44.92325000
15.47999991	-43.12265000
15.51999991	-44.92325000
15.55999991	-44.92325000
15.59999991	-46.71774000
15.63999990	-46.71774000
15.67999990	-43.12265000
15.71999990	-43.12265000
15.75999990	-34.13800000
15.79999990	-28.74844000
15.83999990	-19.76379000
15.87999990	-12.57363000
15.91999990	0.00000000
15.95999990	7.18405700
15.99999990	17.96930000
16.03999990	26.95395000
16.07999990	35.93859000
16.11999990	43.12265000
16.15999990	52.10730000
16.19999990	61.09195000
16.23999990	71.87719000
16.27999990	80.86184000
16.31999990	93.44157000
16.35999990	104.22070000
16.39999990	107.81580000
16.43999990	111.41090000
16.47999990	111.41090000
16.51999990	107.81580000
16.55999990	100.62560000
16.59999990	93.44157000
16.63999990	84.45692000
16.67999990	73.67168000
16.71999990	62.89254000
16.75999990	50.31281000
16.79999990	39.52757000
16.83999990	28.74844000
16.87999990	17.96930000
16.91999990	8.98464900
16.95999990	0.00000000
16.99999990	-8.98464900
17.03999990	-21.55827000
17.07999990	-32.34352000
17.11999990	-43.12265000
17.15999990	-57.50298000
17.19999990	-66.48762000
17.23999990	-75.47227000
17.27999989	-82.65633000
17.31999989	-80.86184000
17.35999989	-77.26676000
17.39999989	-70.07660000
17.43999989	-66.48762000
17.47999989	-64.68703000
17.51999989	-59.29746000
17.55999989	-57.50298000
17.59999989	-53.90789000
17.63999989	-52.10730000
17.67999989	-48.51222000
17.71999989	-44.92325000
17.75999989	-55.70238000
17.79999989	-59.29746000
17.83999989	-43.12265000
17.87999989	-39.52757000
17.91999989	-43.12265000
17.95999989	-43.12265000
17.99999989	-37.73308000
18.03999989	-28.74844000
18.07999989	-21.55827000
18.11999989	-16.16870000
18.15999989	-7.18405700
18.19999989	3.58897700
18.23999989	12.57363000
18.27999989	19.76379000
18.31999989	30.54292000
18.35999989	39.52757000
18.39999989	44.92325000
18.43999989	53.90789000
18.47999989	66.48762000
18.51999989	77.26676000
18.55999989	86.25141000
18.59999989	98.83114000
18.63999989	106.01520000
18.67999989	109.61030000
18.71999989	111.41090000
18.75999989	109.61030000
18.79999989	106.01520000
18.83999989	100.62560000
18.87999989	89.84650000
18.91999989	80.86184000
18.95999988	71.87719000
18.99999988	59.29746000
19.03999988	48.51222000
19.07999988	35.93859000
19.11999988	26.95395000
19.15999988	16.16870000
19.19999988	7.18405700
19.23999988	-3.58897700
19.27999988	-12.57363000
19.31999988	-25.15336000
19.35999988	-37.73308000
19.39999988	-48.51222000
19.43999988	-59.29746000
19.47999988	-71.87719000
19.51999988	-79.06125000
19.55999988	-86.25141000
19.59999988	-91.64098000
19.63999988	-88.04590000
19.67999988	-84.45692000
19.71999988	-79.06125000
19.75999988	-71.87719000
19.79999988	-66.48762000
19.83999988	-57.50298000
19.87999988	-53.90789000
19.91999988	-50.31281000
19.95999988	-50.31281000
19.99999988	-46.71774000
20.03999988	-44.92325000
20.07999988	-44.92325000
20.11999988	-44.92325000
20.15999988	-44.92325000
20.19999988	-43.12265000
20.23999988	-39.52757000
20.27999988	-32.34352000
20.31999988	-26.95395000
20.35999988	-19.76379000
20.39999988	-10.77914000
20.43999988	-1.79448800
20.47999988	7.18405700
20.51999988	14.37422000
20.55999988	19.76379000
20.59999987	19.76379000
20.63999987	19.76379000
20.67999987	21.55827000
20.71999987	30.54292000
20.75999987	48.51222000
20.79999987	71.87719000
20.83999987	95.23605000
20.87999987	118.59490000
20.91999987	141.95990000
20.95999987	152.73900000
20.99999987	150.94450000
21.03999987	140.15930000
21.07999987	120.39550000
21.11999987	102.42620000
21.15999987	84.45692000
21.19999987	64.68703000
21.23999987	48.51222000
21.27999987	35.93859000
21.31999987	26.95395000
21.35999987	17.96930000
21.39999987	7.18405700
21.43999987	-1.79448800
21.47999987	-8.98464900
21.51999987	-16.16870000
21.55999987	-23.35887000
21.59999987	-32.34352000
21.63999987	-43.12265000
21.67999987	-55.70238000
21.71999987	-66.48762000
21.75999987	-75.47227000
21.79999987	-80.86184000
21.83999987	-82.65633000
21.87999987	-77.26676000
21.91999987	-66.48762000
21.95999987	-59.29746000
21.99999987	-53.90789000
22.03999987	-52.10730000
22.07999987	-50.31281000
22.11999987	-52.10730000
22.15999987	-55.70238000
22.19999987	-57.50298000
22.23999986	-59.29746000
22.27999986	-61.09195000
22.31999986	-59.29746000
22.35999986	-55.70238000
22.39999986	-52.10730000
22.43999986	-48.51222000
22.47999986	-43.12265000
22.51999986	-37.73308000
22.55999986	-32.34352000
22.59999986	-26.95395000
22.63999986	-21.55827000
22.67999986	-10.77914000
22.71999986	-1.79448800
22.75999986	12.57363000
22.79999986	23.35887000
22.83999986	34.13800000
22.87999986	43.12265000
22.91999986	52.10730000
22.95999986	57.50298000
22.99999986	68.28211000
23.03999986	73.67168000
23.07999986	82.65633000
23.11999986	91.64098000
23.15999986	100.62560000
23.19999986	104.22070000
23.23999986	107.81580000
23.27999986	106.01520000
23.31999986	102.42620000
23.35999986	98.83114000
23.39999986	91.64098000
23.43999986	82.65633000
23.47999986	73.67168000
23.51999986	62.89254000
23.55999986	52.10730000
23.59999986	43.12265000
23.63999986	32.34352000
23.67999986	19.76379000
23.71999986	7.18405700
23.75999986	0.00000000
23.79999986	-10.77914000
23.83999986	-21.55827000
23.87999985	-32.34352000
23.91999985	-43.12265000
23.95999985	-55.70238000
23.99999985	-68.28211000
24.03999985	-79.06125000
24.07999985	-82.65633000
24.11999985	-86.25141000
24.15999985	-79.06125000
24.19999985	-71.87719000
24.23999985	-70.07660000
24.27999985	-64.68703000
24.31999985	-57.50298000
24.35999985	-52.10730000
24.39999985	-50.31281000
24.43999985	-46.71774000
24.47999985	-43.12265000
24.51999985	-43.12265000
24.55999985	-43.12265000
24.59999985	-48.51222000
24.63999985	-50.31281000
24.67999985	-50.31281000
24.71999985	-44.92325000
24.75999985	-41.32816000
24.79999985	-35.93859000
24.83999985	-28.74844000
24.87999985	-19.76379000
24.91999985	-10.77914000
24.95999985	-1.79448800
24.99999985	5.38956800
25.03999985	14.37422000
25.07999985	25.15336000
25.11999985	34.13800000
25.15999985	43.12265000
25.19999985	50.31281000
25.23999985	57.50298000
25.27999985	70.07660000
25.31999985	80.86184000
25.35999985	91.64098000
25.39999985	104.22070000
25.43999985	111.41090000
25.47999985	116.80040000
25.51999984	115.00600000
25.55999984	113.20540000
25.59999984	106.01520000
25.63999984	98.83114000
25.67999984	88.04590000
25.71999984	79.06125000
25.75999984	66.48762000
25.79999984	53.90789000
25.83999984	41.32816000
25.87999984	28.74844000
25.91999984	17.96930000
25.95999984	1.79448800
25.99999984	-21.55827000
26.03999984	-43.12265000
26.07999984	-46.71774000
26.11999984	-39.52757000
26.15999984	-43.12265000
26.19999984	-46.71774000
26.23999984	-44.92325000
26.27999984	-32.34352000
26.31999984	-28.74844000
26.35999984	-39.52757000
26.39999984	-57.50298000
26.43999984	-68.28211000
26.47999984	-68.28211000
26.51999984	-70.07660000
26.55999984	-75.47227000
26.59999984	-79.06125000
26.63999984	-71.87719000
26.67999984	-59.29746000
26.71999984	-53.90789000
26.75999984	-57.50298000
26.79999984	-61.09195000
26.83999984	-57.50298000
26.87999984	-52.10730000
26.91999984	-46.71774000
26.95999984	-46.71774000
26.99999984	-44.92325000
27.03999984	-39.52757000
27.07999984	-28.74844000
27.11999984	-21.55827000
27.15999983	-12.57363000
27.19999983	-3.58897700
27.23999983	10.77914000
27.27999983	26.95395000
27.31999983	39.52757000
27.35999983	48.51222000
27.39999983	53.90789000
27.43999983	55.70238000
27.47999983	62.89254000
27.51999983	68.28211000
27.55999983	75.47227000
27.59999983	71.87719000
27.63999983	73.67168000
27.67999983	98.83114000
27.71999983	113.20540000
27.75999983	111.41090000
27.79999983	106.01520000
27.83999983	102.42620000
27.87999983	102.42620000
27.91999983	93.44157000
27.95999983	77.26676000
27.99999983	64.68703000
28.03999983	53.90789000
28.07999983	43.12265000
28.11999983	32.34352000
28.15999983	26.95395000
28.19999983	17.96930000
28.23999983	10.77914000
28.27999983	0.00000000
28.31999983	-7.18405700
28.35999983	-23.35887000
28.39999983	-39.52757000
28.43999983	-57.50298000
28.47999983	-70.07660000
28.51999983	-82.65633000
28.55999983	-91.64098000
28.59999983	-97.03055000
28.63999983	-93.44157000
28.67999983	-93.44157000
28.71999983	-84.45692000
28.75999983	-73.67168000
28.79999982	-62.89254000
28.83999982	-53.90789000
28.87999982	-50.31281000
28.91999982	-43.12265000
28.95999982	-37.73308000
28.99999982	-41.32816000
29.03999982	-39.52757000
29.07999982	-41.32816000
29.11999982	-43.12265000
29.15999982	-44.92325000
29.19999982	-43.12265000
29.23999982	-41.32816000
29.27999982	-37.73308000
29.31999982	-34.13800000
29.35999982	-23.35887000
29.39999982	-14.37422000
29.43999982	-8.98464900
29.47999982	-1.79448800
29.51999982	5.38956800
29.55999982	14.37422000
29.59999982	23.35887000
29.63999982	32.34352000
29.67999982	43.12265000
29.71999982	53.90789000
29.75999982	64.68703000
29.79999982	77.26676000
29.83999982	89.84650000
29.87999982	100.62560000
29.91999982	107.81580000
29.95999982	113.20540000
29.99999982	113.20540000
30.03999982	111.41090000
30.07999982	106.01520000
30.11999982	100.62560000
30.15999982	89.84650000
30.19999982	80.86184000
30.23999982	70.07660000
30.27999982	57.50298000
30.31999982	46.71774000
30.35999982	34.13800000
30.39999982	21.55827000
30.43999982	12.57363000
30.47999981	1.79448800
30.51999981	-7.18405700
30.55999981	-16.16870000
30.59999981	-28.74844000
30.63999981	-37.73308000
30.67999981	-52.10730000
30.71999981	-62.89254000
30.75999981	-73.67168000
30.79999981	-80.86184000
30.83999981	-86.25141000
30.87999981	-86.25141000
30.91999981	-82.65633000
30.95999981	-79.06125000
30.99999981	-73.67168000
31.03999981	-68.28211000
31.07999981	-64.68703000
31.11999981	-61.09195000
31.15999981	-57.50298000
31.19999981	-52.10730000
31.23999981	-50.31281000
31.27999981	-50.31281000
31.31999981	-48.51222000
31.35999981	-50.31281000
31.39999981	-46.71774000
31.43999981	-46.71774000
31.47999981	-43.12265000
31.51999981	-39.52757000
31.55999981	-34.13800000
