Time,Channel A
(us),(mV)

0.00000000,80.70620000
0.04000000,98.66634000
0.08000000,116.64170000
0.12000000,130.11560000
0.16000000,143.58960000
0.20000000,152.57730000
0.24000000,157.06350000
0.28000000,143.58960000
0.32000000,125.61420000
0.36000000,125.61420000
0.40000000,121.12800000
0.44000000,107.65400000
0.48000000,94.18011000
0.52000000,85.19241000
0.56000000,80.70620000
0.60000000,67.21701000
0.64000000,53.74309000
0.68000000,40.26917000
0.72000000,35.78295000
0.76000000,22.29377000
0.80000000,8.81984900
0.83999999,-0.15259250
0.87999999,-18.11273000
0.91999999,-31.58666000
0.95999999,-40.57436000
0.99999999,-54.04828000
1.03999999,-58.54976000
1.07999999,-67.52220000
1.11999999,-72.02368000
1.15999999,-76.50990000
1.19999999,-76.50990000
1.23999999,-81.01138000
1.27999999,-81.01138000
1.31999999,-85.49760000
1.35999999,-85.49760000
1.39999999,-89.98383000
1.43999999,-89.98383000
1.47999999,-89.98383000
1.51999999,-94.48530000
1.55999999,-98.97152000
1.59999999,-112.44540000
1.63999999,-130.42080000
1.67999999,-116.94690000
1.71999999,-89.98383000
1.75999999,-81.01138000
1.79999999,-76.50990000
1.83999999,-54.04828000
1.87999999,-27.10044000
1.91999999,-13.62651000
1.95999999,-22.59896000
1.99999999,-36.08813000
2.03999999,-40.57436000
2.07999999,-36.08813000
2.11999999,-31.58666000
2.15999999,-36.08813000
2.19999999,-36.08813000
2.23999999,-18.11273000
2.27999999,4.33362800
2.31999999,17.80755000
2.35999999,22.29377000
2.39999999,35.78295000
2.43999999,49.25687000
2.47999998,67.21701000
2.51999998,76.20471000
2.55999998,85.19241000
2.59999998,94.18011000
2.63999998,107.65400000
2.67999998,121.12800000
2.71999998,139.10340000
2.75999998,143.58960000
2.79999998,143.58960000
2.83999998,143.58960000
2.87999998,143.58960000
2.91999998,134.60190000
2.95999998,125.61420000
2.99999998,107.65400000
3.03999998,89.67863000
3.07999998,76.20471000
3.11999998,62.73079000
3.15999998,44.75539000
3.19999998,26.79525000
3.23999998,17.80755000
3.27999998,8.81984900
3.31999998,-0.15259250
3.35999998,-9.12503300
3.39999998,-13.62651000
3.43999998,-22.59896000
3.47999998,-36.08813000
3.51999998,-45.06058000
3.55999998,-54.04828000
3.59999998,-63.03598000
3.63999998,-72.02368000
3.67999998,-76.50990000
3.71999998,-76.50990000
3.75999998,-76.50990000
3.79999998,-81.01138000
3.83999998,-76.50990000
3.87999998,-72.02368000
3.91999998,-72.02368000
3.95999998,-76.50990000
3.99999998,-81.01138000
4.03999998,-81.01138000
4.07999998,-85.49760000
4.11999997,-89.98383000
4.15999997,-89.98383000
4.19999997,-89.98383000
4.23999997,-89.98383000
4.27999997,-85.49760000
4.31999997,-81.01138000
4.35999997,-81.01138000
4.39999997,-72.02368000
4.43999997,-72.02368000
4.47999997,-63.03598000
4.51999997,-54.04828000
4.55999997,-45.06058000
4.59999997,-36.08813000
4.63999997,-27.10044000
4.67999997,-18.11273000
4.71999997,-13.62651000
4.75999997,-0.15259250
4.79999997,13.32133000
4.83999997,26.79525000
4.87999997,40.26917000
4.91999997,53.74309000
4.95999997,71.71850000
4.99999997,80.70620000
5.03999997,94.18011000
5.07999997,107.65400000
5.11999997,116.64170000
5.15999997,125.61420000
5.19999997,130.11560000
5.23999997,143.58960000
5.27999997,143.58960000
5.31999997,143.58960000
5.35999997,134.60190000
5.39999997,125.61420000
5.43999997,121.12800000
5.47999997,107.65400000
5.51999997,103.15250000
5.55999997,89.67863000
5.59999997,80.70620000
5.63999997,71.71850000
5.67999997,53.74309000
5.71999997,44.75539000
5.75999996,35.78295000
5.79999996,22.29377000
5.83999996,8.81984900
5.87999996,-0.15259250
5.91999996,-13.62651000
5.95999996,-27.10044000
5.99999996,-36.08813000
6.03999996,-49.56206000
6.07999996,-58.54976000
6.11999996,-67.52220000
6.15999996,-72.02368000
6.19999996,-76.50990000
6.23999996,-81.01138000
6.27999996,-85.49760000
6.31999996,-85.49760000
6.35999996,-85.49760000
6.39999996,-89.98383000
6.43999996,-89.98383000
6.47999996,-89.98383000
6.51999996,-81.01138000
6.55999996,-76.50990000
6.59999996,-72.02368000
6.63999996,-72.02368000
6.67999996,-72.02368000
6.71999996,-72.02368000
6.75999996,-72.02368000
6.79999996,-67.52220000
6.83999996,-72.02368000
6.87999996,-72.02368000
6.91999996,-67.52220000
6.95999996,-63.03598000
6.99999996,-58.54976000
7.03999996,-54.04828000
7.07999996,-49.56206000
7.11999996,-40.57436000
7.15999996,-31.58666000
7.19999996,-22.59896000
7.23999996,-13.62651000
7.27999996,-0.15259250
7.31999996,17.80755000
7.35999996,31.28147000
7.39999996,44.75539000
7.43999995,58.24457000
7.47999995,71.71850000
7.51999995,89.67863000
7.55999995,103.15250000
7.59999995,116.64170000
7.63999995,130.11560000
7.67999995,139.10340000
7.71999995,148.07580000
7.75999995,148.07580000
7.79999995,148.07580000
7.83999995,139.10340000
7.87999995,130.11560000
7.91999995,121.12800000
7.95999995,112.14030000
7.99999995,103.15250000
8.03999995,94.18011000
8.07999995,85.19241000
8.11999995,71.71850000
8.15999995,62.73079000
8.19999995,49.25687000
8.23999995,40.26917000
8.27999995,31.28147000
8.31999995,17.80755000
8.35999995,8.81984900
8.39999995,-4.63881300
8.43999995,-18.11273000
8.47999995,-31.58666000
8.51999995,-40.57436000
8.55999995,-54.04828000
8.59999995,-58.54976000
8.63999995,-67.52220000
8.67999995,-72.02368000
8.71999995,-76.50990000
8.75999995,-81.01138000
8.79999995,-85.49760000
8.83999995,-81.01138000
8.87999995,-81.01138000
8.91999995,-72.02368000
8.95999995,-72.02368000
8.99999995,-72.02368000
9.03999995,-72.02368000
9.07999994,-76.50990000
9.11999994,-76.50990000
9.15999994,-76.50990000
9.19999994,-76.50990000
9.23999994,-76.50990000
9.27999994,-76.50990000
9.31999994,-76.50990000
9.35999994,-76.50990000
9.39999994,-72.02368000
9.43999994,-67.52220000
9.47999994,-63.03598000
9.51999994,-54.04828000
9.55999994,-49.56206000
9.59999994,-40.57436000
9.63999994,-31.58666000
9.67999994,-18.11273000
9.71999994,-9.12503300
9.75999994,-0.15259250
9.79999994,17.80755000
9.83999994,31.28147000
9.87999994,40.26917000
9.91999994,53.74309000
9.95999994,71.71850000
9.99999994,80.70620000
10.03999994,89.67863000
10.07999994,107.65400000
10.11999994,125.61420000
10.15999994,125.61420000
10.19999994,134.60190000
10.23999994,152.57730000
10.27999994,152.57730000
10.31999994,143.58960000
10.35999994,134.60190000
10.39999994,121.12800000
10.43999994,116.64170000
10.47999994,112.14030000
10.51999994,98.66634000
10.55999994,89.67863000
10.59999994,85.19241000
10.63999994,71.71850000
10.67999994,62.73079000
10.71999993,53.74309000
10.75999993,40.26917000
10.79999993,31.28147000
10.83999993,17.80755000
10.87999993,4.33362800
10.91999993,-4.63881300
10.95999993,-22.59896000
10.99999993,-36.08813000
11.03999993,-40.57436000
11.07999993,-54.04828000
11.11999993,-63.03598000
11.15999993,-72.02368000
11.19999993,-76.50990000
11.23999993,-81.01138000
11.27999993,-85.49760000
11.31999993,-89.98383000
11.35999993,-89.98383000
11.39999993,-85.49760000
11.43999993,-76.50990000
11.47999993,-76.50990000
11.51999993,-72.02368000
11.55999993,-72.02368000
11.59999993,-72.02368000
11.63999993,-72.02368000
11.67999993,-72.02368000
11.71999993,-72.02368000
11.75999993,-72.02368000
11.79999993,-72.02368000
11.83999993,-72.02368000
11.87999993,-72.02368000
11.91999993,-67.52220000
11.95999993,-67.52220000
11.99999993,-63.03598000
12.03999993,-54.04828000
12.07999993,-49.56206000
12.11999993,-36.08813000
12.15999993,-31.58666000
12.19999993,-18.11273000
12.23999993,-9.12503300
12.27999993,4.33362800
12.31999993,17.80755000
12.35999992,35.78295000
12.39999992,49.25687000
12.43999992,62.73079000
12.47999992,76.20471000
12.51999992,89.67863000
12.55999992,103.15250000
12.59999992,121.12800000
12.63999992,130.11560000
12.67999992,143.58960000
12.71999992,148.07580000
12.75999992,148.07580000
12.79999992,143.58960000
12.83999992,134.60190000
12.87999992,125.61420000
12.91999992,121.12800000
12.95999992,116.64170000
12.99999992,107.65400000
13.03999992,98.66634000
13.07999992,89.67863000
13.11999992,80.70620000
13.15999992,67.21701000
13.19999992,58.24457000
13.23999992,49.25687000
13.27999992,35.78295000
13.31999992,26.79525000
13.35999992,13.32133000
13.39999992,-0.15259250
13.43999992,-13.62651000
13.47999992,-27.10044000
13.51999992,-36.08813000
13.55999992,-49.56206000
13.59999992,-58.54976000
13.63999992,-67.52220000
13.67999992,-76.50990000
13.71999992,-76.50990000
13.75999992,-81.01138000
13.79999992,-81.01138000
13.83999992,-81.01138000
13.87999992,-76.50990000
13.91999992,-72.02368000
13.95999992,-72.02368000
13.99999991,-72.02368000
14.03999991,-72.02368000
14.07999991,-72.02368000
14.11999991,-72.02368000
14.15999991,-72.02368000
14.19999991,-72.02368000
14.23999991,-72.02368000
14.27999991,-72.02368000
14.31999991,-72.02368000
14.35999991,-72.02368000
14.39999991,-67.52220000
14.43999991,-63.03598000
14.47999991,-58.54976000
14.51999991,-54.04828000
14.55999991,-45.06058000
14.59999991,-36.08813000
14.63999991,-31.58666000
14.67999991,-22.59896000
14.71999991,-13.62651000
14.75999991,-0.15259250
14.79999991,8.81984900
14.83999991,22.29377000
14.87999991,35.78295000
14.91999991,53.74309000
14.95999991,67.21701000
14.99999991,80.70620000
15.03999991,94.18011000
15.07999991,112.14030000
15.11999991,125.61420000
15.15999991,143.58960000
15.19999991,148.07580000
15.23999991,152.57730000
15.27999991,148.07580000
15.31999991,139.10340000
15.35999991,134.60190000
15.39999991,125.61420000
15.43999991,112.14030000
15.47999991,107.65400000
15.51999991,103.15250000
15.55999991,94.18011000
15.59999991,85.19241000
15.63999990,76.20471000
15.67999990,67.21701000
15.71999990,58.24457000
15.75999990,49.25687000
15.79999990,35.78295000
15.83999990,22.29377000
15.87999990,8.81984900
15.91999990,-4.63881300
15.95999990,-18.11273000
15.99999990,-36.08813000
16.03999990,-49.56206000
16.07999990,-58.54976000
16.11999990,-67.52220000
16.15999990,-76.50990000
16.19999990,-81.01138000
16.23999990,-85.49760000
16.27999990,-85.49760000
16.31999990,-85.49760000
16.35999990,-85.49760000
16.39999990,-85.49760000
16.43999990,-85.49760000
16.47999990,-81.01138000
16.51999990,-85.49760000
16.55999990,-81.01138000
16.59999990,-76.50990000
16.63999990,-67.52220000
16.67999990,-67.52220000
16.71999990,-63.03598000
16.75999990,-67.52220000
16.79999990,-67.52220000
16.83999990,-63.03598000
16.87999990,-63.03598000
16.91999990,-63.03598000
16.95999990,-58.54976000
16.99999990,-58.54976000
17.03999990,-54.04828000
17.07999990,-49.56206000
17.11999990,-45.06058000
17.15999990,-36.08813000
17.19999990,-27.10044000
17.23999990,-13.62651000
17.27999989,-0.15259250
17.31999989,13.32133000
17.35999989,26.79525000
17.39999989,44.75539000
17.43999989,58.24457000
17.47999989,71.71850000
17.51999989,89.67863000
17.55999989,107.65400000
17.59999989,121.12800000
17.63999989,130.11560000
17.67999989,143.58960000
17.71999989,148.07580000
17.75999989,143.58960000
17.79999989,143.58960000
17.83999989,134.60190000
17.87999989,125.61420000
17.91999989,116.64170000
17.95999989,112.14030000
17.99999989,103.15250000
18.03999989,94.18011000
18.07999989,89.67863000
18.11999989,76.20471000
18.15999989,67.21701000
18.19999989,58.24457000
18.23999989,49.25687000
18.27999989,35.78295000
18.31999989,22.29377000
18.35999989,8.81984900
18.39999989,-0.15259250
18.43999989,-13.62651000
18.47999989,-27.10044000
18.51999989,-40.57436000
18.55999989,-54.04828000
18.59999989,-58.54976000
18.63999989,-72.02368000
18.67999989,-76.50990000
18.71999989,-76.50990000
18.75999989,-85.49760000
18.79999989,-85.49760000
18.83999989,-89.98383000
18.87999989,-85.49760000
18.91999989,-81.01138000
18.95999988,-76.50990000
18.99999988,-72.02368000
19.03999988,-72.02368000
19.07999988,-72.02368000
19.11999988,-72.02368000
19.15999988,-72.02368000
19.19999988,-72.02368000
19.23999988,-76.50990000
19.27999988,-72.02368000
19.31999988,-76.50990000
19.35999988,-76.50990000
19.39999988,-72.02368000
19.43999988,-72.02368000
19.47999988,-67.52220000
19.51999988,-58.54976000
19.55999988,-54.04828000
19.59999988,-45.06058000
19.63999988,-36.08813000
19.67999988,-27.10044000
19.71999988,-13.62651000
19.75999988,-0.15259250
19.79999988,8.81984900
19.83999988,22.29377000
19.87999988,40.26917000
19.91999988,53.74309000
19.95999988,71.71850000
19.99999988,71.71850000
20.03999988,89.67863000
20.07999988,112.14030000
20.11999988,130.11560000
20.15999988,134.60190000
20.19999988,139.10340000
20.23999988,148.07580000
20.27999988,152.57730000
20.31999988,139.10340000
20.35999988,130.11560000
20.39999988,125.61420000
20.43999988,116.64170000
20.47999988,107.65400000
20.51999988,103.15250000
20.55999988,94.18011000
20.59999987,80.70620000
20.63999987,76.20471000
20.67999987,67.21701000
20.71999987,53.74309000
20.75999987,44.75539000
20.79999987,35.78295000
20.83999987,17.80755000
20.87999987,8.81984900
20.91999987,-4.63881300
20.95999987,-18.11273000
20.99999987,-31.58666000
21.03999987,-40.57436000
21.07999987,-54.04828000
21.11999987,-67.52220000
21.15999987,-72.02368000
21.19999987,-76.50990000
21.23999987,-81.01138000
21.27999987,-85.49760000
21.31999987,-85.49760000
21.35999987,-89.98383000
21.39999987,-81.01138000
21.43999987,-81.01138000
21.47999987,-72.02368000
21.51999987,-72.02368000
21.55999987,-72.02368000
21.59999987,-72.02368000
21.63999987,-67.52220000
21.67999987,-72.02368000
21.71999987,-72.02368000
21.75999987,-72.02368000
21.79999987,-72.02368000
21.83999987,-72.02368000
21.87999987,-72.02368000
21.91999987,-67.52220000
21.95999987,-67.52220000
21.99999987,-58.54976000
22.03999987,-54.04828000
22.07999987,-40.57436000
22.11999987,-36.08813000
22.15999987,-27.10044000
22.19999987,-18.11273000
22.23999986,-4.63881300
22.27999986,-0.15259250
22.31999986,13.32133000
22.35999986,26.79525000
22.39999986,40.26917000
22.43999986,53.74309000
22.47999986,71.71850000
22.51999986,80.70620000
22.55999986,98.66634000
22.59999986,112.14030000
22.63999986,125.61420000
22.67999986,139.10340000
22.71999986,143.58960000
22.75999986,143.58960000
22.79999986,121.12800000
22.83999986,94.18011000
22.87999986,98.66634000
22.91999986,116.64170000
22.95999986,107.65400000
22.99999986,112.14030000
23.03999986,125.61420000
23.07999986,139.10340000
23.11999986,139.10340000
23.15999986,116.64170000
23.19999986,85.19241000
23.23999986,62.73079000
23.27999986,49.25687000
23.31999986,26.79525000
23.35999986,-0.15259250
23.39999986,-22.59896000
23.43999986,-31.58666000
23.47999986,-36.08813000
23.51999986,-45.06058000
23.55999986,-63.03598000
23.59999986,-72.02368000
23.63999986,-81.01138000
23.67999986,-81.01138000
23.71999986,-85.49760000
23.75999986,-94.48530000
23.79999986,-94.48530000
23.83999986,-89.98383000
23.87999985,-85.49760000
23.91999985,-76.50990000
23.95999985,-72.02368000
23.99999985,-63.03598000
24.03999985,-58.54976000
24.07999985,-54.04828000
24.11999985,-45.06058000
24.15999985,-54.04828000
24.19999985,-58.54976000
24.23999985,-67.52220000
24.27999985,-72.02368000
24.31999985,-76.50990000
24.35999985,-81.01138000
24.39999985,-81.01138000
24.43999985,-81.01138000
24.47999985,-72.02368000
24.51999985,-63.03598000
24.55999985,-54.04828000
24.59999985,-40.57436000
24.63999985,-31.58666000
24.67999985,-22.59896000
24.71999985,-13.62651000
24.75999985,-4.63881300
24.79999985,4.33362800
24.83999985,17.80755000
24.87999985,35.78295000
24.91999985,49.25687000
24.95999985,67.21701000
24.99999985,85.19241000
25.03999985,103.15250000
25.07999985,116.64170000
25.11999985,130.11560000
25.15999985,139.10340000
25.19999985,143.58960000
25.23999985,148.07580000
25.27999985,148.07580000
25.31999985,139.10340000
25.35999985,125.61420000
25.39999985,116.64170000
25.43999985,112.14030000
25.47999985,103.15250000
25.51999984,98.66634000
25.55999984,89.67863000
25.59999984,80.70620000
25.63999984,71.71850000
25.67999984,67.21701000
25.71999984,53.74309000
25.75999984,44.75539000
25.79999984,35.78295000
25.83999984,17.80755000
25.87999984,8.81984900
25.91999984,-4.63881300
25.95999984,-18.11273000
25.99999984,-36.08813000
26.03999984,-45.06058000
26.07999984,-54.04828000
26.11999984,-63.03598000
26.15999984,-67.52220000
26.19999984,-76.50990000
26.23999984,-81.01138000
26.27999984,-85.49760000
26.31999984,-89.98383000
26.35999984,-89.98383000
26.39999984,-81.01138000
26.43999984,-76.50990000
26.47999984,-67.52220000
26.51999984,-67.52220000
26.55999984,-63.03598000
26.59999984,-67.52220000
26.63999984,-67.52220000
26.67999984,-63.03598000
26.71999984,-67.52220000
26.75999984,-72.02368000
26.79999984,-72.02368000
26.83999984,-72.02368000
26.87999984,-67.52220000
26.91999984,-67.52220000
26.95999984,-63.03598000
26.99999984,-58.54976000
27.03999984,-49.56206000
27.07999984,-40.57436000
27.11999984,-36.08813000
27.15999983,-27.10044000
27.19999983,-18.11273000
27.23999983,-9.12503300
27.27999983,-0.15259250
27.31999983,13.32133000
27.35999983,31.28147000
27.39999983,40.26917000
27.43999983,58.24457000
27.47999983,71.71850000
27.51999983,85.19241000
27.55999983,103.15250000
27.59999983,121.12800000
27.63999983,134.60190000
27.67999983,143.58960000
27.71999983,157.06350000
27.75999983,152.57730000
27.79999983,143.58960000
27.83999983,134.60190000
27.87999983,130.11560000
27.91999983,121.12800000
27.95999983,112.14030000
27.99999983,107.65400000
28.03999983,94.18011000
28.07999983,85.19241000
28.11999983,80.70620000
28.15999983,71.71850000
28.19999983,62.73079000
28.23999983,53.74309000
28.27999983,35.78295000
28.31999983,31.28147000
28.35999983,13.32133000
28.39999983,-0.15259250
28.43999983,-18.11273000
28.47999983,-27.10044000
28.51999983,-40.57436000
28.55999983,-54.04828000
28.59999983,-63.03598000
28.63999983,-72.02368000
28.67999983,-76.50990000
28.71999983,-81.01138000
28.75999983,-85.49760000
28.79999982,-85.49760000
28.83999982,-89.98383000
28.87999982,-85.49760000
28.91999982,-85.49760000
28.95999982,-89.98383000
28.99999982,-89.98383000
29.03999982,-89.98383000
29.07999982,-89.98383000
29.11999982,-81.01138000
29.15999982,-76.50990000
29.19999982,-67.52220000
29.23999982,-67.52220000
29.27999982,-63.03598000
29.31999982,-63.03598000
29.35999982,-63.03598000
29.39999982,-58.54976000
29.43999982,-58.54976000
29.47999982,-54.04828000
29.51999982,-49.56206000
29.55999982,-45.06058000
29.59999982,-40.57436000
29.63999982,-36.08813000
29.67999982,-31.58666000
29.71999982,-22.59896000
29.75999982,-9.12503300
29.79999982,4.33362800
29.83999982,4.33362800
29.87999982,26.79525000
29.91999982,49.25687000
29.95999982,67.21701000
29.99999982,71.71850000
30.03999982,89.67863000
30.07999982,107.65400000
30.11999982,125.61420000
30.15999982,134.60190000
30.19999982,143.58960000
30.23999982,148.07580000
30.27999982,143.58960000
30.31999982,139.10340000
30.35999982,130.11560000
30.39999982,125.61420000
30.43999982,116.64170000
30.47999981,107.65400000
30.51999981,98.66634000
30.55999981,89.67863000
30.59999981,80.70620000
30.63999981,71.71850000
30.67999981,62.73079000
30.71999981,53.74309000
30.75999981,35.78295000
30.79999981,26.79525000
30.83999981,13.32133000
30.87999981,-0.15259250
30.91999981,-13.62651000
30.95999981,-27.10044000
30.99999981,-36.08813000
31.03999981,-49.56206000
31.07999981,-58.54976000
31.11999981,-63.03598000
31.15999981,-72.02368000
31.19999981,-76.50990000
31.23999981,-81.01138000
31.27999981,-81.01138000
31.31999981,-85.49760000
31.35999981,-81.01138000
31.39999981,-76.50990000
