Time	Channel A
(us)	(mV)

0.00000000	61.09195000
0.04000000	52.10730000
0.08000000	43.12265000
0.12000000	35.93859000
0.16000000	26.95395000
0.20000000	19.76379000
0.24000000	10.77914000
0.28000000	1.79448800
0.32000000	-7.18405700
0.36000000	-17.96930000
0.40000000	-30.54292000
0.44000000	-41.32816000
0.48000000	-52.10730000
0.52000000	-61.09195000
0.56000000	-68.28211000
0.60000000	-71.87719000
0.64000000	-71.87719000
0.68000000	-66.48762000
0.72000000	-64.68703000
0.76000000	-70.07660000
0.80000000	-66.48762000
0.83999999	-57.50298000
0.87999999	-50.31281000
0.91999999	-48.51222000
0.95999999	-48.51222000
0.99999999	-43.12265000
1.03999999	-35.93859000
1.07999999	-34.13800000
1.11999999	-30.54292000
1.15999999	-26.95395000
1.19999999	-21.55827000
1.23999999	-14.37422000
1.27999999	-8.98464900
1.31999999	-3.58897700
1.35999999	3.58897700
1.39999999	12.57363000
1.43999999	21.55827000
1.47999999	30.54292000
1.51999999	41.32816000
1.55999999	50.31281000
1.59999999	64.68703000
1.63999999	75.47227000
1.67999999	84.45692000
1.71999999	88.04590000
1.75999999	89.84650000
1.79999999	88.04590000
1.83999999	82.65633000
1.87999999	77.26676000
1.91999999	71.87719000
1.95999999	64.68703000
1.99999999	57.50298000
2.03999999	48.51222000
2.07999999	41.32816000
2.11999999	32.34352000
2.15999999	23.35887000
2.19999999	14.37422000
2.23999999	5.38956800
2.27999999	-1.79448800
2.31999999	-10.77914000
2.35999999	-23.35887000
2.39999999	-37.73308000
2.43999999	-44.92325000
2.47999998	-57.50298000
2.51999998	-64.68703000
2.55999998	-70.07660000
2.59999998	-73.67168000
2.63999998	-73.67168000
2.67999998	-71.87719000
2.71999998	-68.28211000
2.75999998	-62.89254000
2.79999998	-59.29746000
2.83999998	-55.70238000
2.87999998	-50.31281000
2.91999998	-46.71774000
2.95999998	-43.12265000
2.99999998	-39.52757000
3.03999998	-35.93859000
3.07999998	-34.13800000
3.11999998	-28.74844000
3.15999998	-25.15336000
3.19999998	-21.55827000
3.23999998	-14.37422000
3.27999998	-7.18405700
3.31999998	0.00000000
3.35999998	7.18405700
3.39999998	14.37422000
3.43999998	23.35887000
3.47999998	34.13800000
3.51999998	46.71774000
3.55999998	57.50298000
3.59999998	68.28211000
3.63999998	79.06125000
3.67999998	86.25141000
3.71999998	88.04590000
3.75999998	89.84650000
3.79999998	86.25141000
3.83999998	82.65633000
3.87999998	75.47227000
3.91999998	70.07660000
3.95999998	62.89254000
3.99999998	53.90789000
4.03999998	44.92325000
4.07999998	41.32816000
4.11999997	30.54292000
4.15999997	12.57363000
4.19999997	5.38956800
4.23999997	10.77914000
4.27999997	0.00000000
4.31999997	-16.16870000
4.35999997	-30.54292000
4.39999997	-39.52757000
4.43999997	-48.51222000
4.47999997	-59.29746000
4.51999997	-68.28211000
4.55999997	-71.87719000
4.59999997	-73.67168000
4.63999997	-75.47227000
4.67999997	-71.87719000
4.71999997	-68.28211000
4.75999997	-64.68703000
4.79999997	-59.29746000
4.83999997	-53.90789000
4.87999997	-48.51222000
4.91999997	-44.92325000
4.95999997	-43.12265000
4.99999997	-39.52757000
5.03999997	-35.93859000
5.07999997	-32.34352000
5.11999997	-28.74844000
5.15999997	-23.35887000
5.19999997	-16.16870000
5.23999997	-10.77914000
5.27999997	-5.38956800
5.31999997	1.79448800
5.35999997	8.98464900
5.39999997	19.76379000
5.43999997	26.95395000
5.47999997	35.93859000
5.51999997	48.51222000
5.55999997	57.50298000
5.59999997	70.07660000
5.63999997	80.86184000
5.67999997	86.25141000
5.71999997	88.04590000
5.75999996	86.25141000
5.79999996	84.45692000
5.83999996	80.86184000
5.87999996	73.67168000
5.91999996	66.48762000
5.95999996	59.29746000
5.99999996	52.10730000
6.03999996	43.12265000
6.07999996	35.93859000
6.11999996	26.95395000
6.15999996	17.96930000
6.19999996	8.98464900
6.23999996	0.00000000
6.27999996	-8.98464900
6.31999996	-19.76379000
6.35999996	-30.54292000
6.39999996	-41.32816000
6.43999996	-52.10730000
6.47999996	-61.09195000
6.51999996	-68.28211000
6.55999996	-71.87719000
6.59999996	-71.87719000
6.63999996	-71.87719000
6.67999996	-71.87719000
6.71999996	-66.48762000
6.75999996	-62.89254000
6.79999996	-57.50298000
6.83999996	-53.90789000
6.87999996	-48.51222000
6.91999996	-44.92325000
6.95999996	-41.32816000
6.99999996	-37.73308000
7.03999996	-35.93859000
7.07999996	-30.54292000
7.11999996	-26.95395000
7.15999996	-21.55827000
7.19999996	-16.16870000
7.23999996	-10.77914000
7.27999996	-3.58897700
7.31999996	3.58897700
7.35999996	10.77914000
7.39999996	19.76379000
7.43999995	28.74844000
7.47999995	39.52757000
7.51999995	50.31281000
7.55999995	62.89254000
7.59999995	75.47227000
7.63999995	82.65633000
7.67999995	88.04590000
7.71999995	88.04590000
7.75999995	86.25141000
7.79999995	82.65633000
7.83999995	79.06125000
7.87999995	71.87719000
7.91999995	64.68703000
7.95999995	57.50298000
7.99999995	50.31281000
8.03999995	41.32816000
8.07999995	32.34352000
8.11999995	25.15336000
8.15999995	16.16870000
8.19999995	7.18405700
8.23999995	-1.79448800
8.27999995	-10.77914000
8.31999995	-21.55827000
8.35999995	-32.34352000
8.39999995	-43.12265000
8.43999995	-55.70238000
8.47999995	-62.89254000
8.51999995	-70.07660000
8.55999995	-71.87719000
8.59999995	-73.67168000
8.63999995	-71.87719000
8.67999995	-70.07660000
8.71999995	-64.68703000
8.75999995	-61.09195000
8.79999995	-57.50298000
8.83999995	-52.10730000
8.87999995	-46.71774000
8.91999995	-44.92325000
8.95999995	-41.32816000
8.99999995	-39.52757000
9.03999995	-35.93859000
9.07999994	-30.54292000
9.11999994	-26.95395000
9.15999994	-17.96930000
9.19999994	-10.77914000
9.23999994	-7.18405700
9.27999994	-1.79448800
9.31999994	5.38956800
9.35999994	14.37422000
9.39999994	23.35887000
9.43999994	30.54292000
9.47999994	43.12265000
9.51999994	55.70238000
9.55999994	66.48762000
9.59999994	75.47227000
9.63999994	84.45692000
9.67999994	86.25141000
9.71999994	86.25141000
9.75999994	86.25141000
9.79999994	80.86184000
9.83999994	75.47227000
9.87999994	68.28211000
9.91999994	62.89254000
9.95999994	55.70238000
9.99999994	46.71774000
10.03999994	35.93859000
10.07999994	28.74844000
10.11999994	21.55827000
10.15999994	12.57363000
10.19999994	5.38956800
10.23999994	-5.38956800
10.27999994	-14.37422000
10.31999994	-25.15336000
10.35999994	-37.73308000
10.39999994	-48.51222000
10.43999994	-57.50298000
10.47999994	-64.68703000
10.51999994	-70.07660000
10.55999994	-70.07660000
10.59999994	-64.68703000
10.63999994	-70.07660000
10.67999994	-71.87719000
10.71999993	-66.48762000
10.75999993	-55.70238000
10.79999993	-52.10730000
10.83999993	-52.10730000
10.87999993	-48.51222000
10.91999993	-43.12265000
10.95999993	-37.73308000
10.99999993	-35.93859000
11.03999993	-34.13800000
11.07999993	-28.74844000
11.11999993	-23.35887000
11.15999993	-16.16870000
11.19999993	-10.77914000
11.23999993	-7.18405700
11.27999993	0.00000000
11.31999993	7.18405700
11.35999993	17.96930000
11.39999993	26.95395000
11.43999993	35.93859000
11.47999993	48.51222000
11.51999993	62.89254000
11.55999993	73.67168000
11.59999993	80.86184000
11.63999993	86.25141000
11.67999993	88.04590000
11.71999993	88.04590000
11.75999993	84.45692000
11.79999993	79.06125000
11.83999993	71.87719000
11.87999993	66.48762000
11.91999993	59.29746000
11.95999993	50.31281000
11.99999993	43.12265000
12.03999993	34.13800000
12.07999993	25.15336000
12.11999993	17.96930000
12.15999993	8.98464900
12.19999993	0.00000000
12.23999993	-8.98464900
12.27999993	-19.76379000
12.31999993	-32.34352000
12.35999992	-43.12265000
12.39999992	-53.90789000
12.43999992	-61.09195000
12.47999992	-68.28211000
12.51999992	-73.67168000
12.55999992	-73.67168000
12.59999992	-71.87719000
12.63999992	-68.28211000
12.67999992	-64.68703000
12.71999992	-59.29746000
12.75999992	-53.90789000
12.79999992	-48.51222000
12.83999992	-44.92325000
12.87999992	-43.12265000
12.91999992	-39.52757000
12.95999992	-35.93859000
12.99999992	-32.34352000
13.03999992	-30.54292000
13.07999992	-26.95395000
13.11999992	-21.55827000
13.15999992	-16.16870000
13.19999992	-8.98464900
13.23999992	-3.58897700
13.27999992	3.58897700
13.31999992	14.37422000
13.35999992	21.55827000
13.39999992	34.13800000
13.43999992	44.92325000
13.47999992	57.50298000
13.51999992	70.07660000
13.55999992	80.86184000
13.59999992	86.25141000
13.63999992	88.04590000
13.67999992	88.04590000
13.71999992	86.25141000
13.75999992	80.86184000
13.79999992	75.47227000
13.83999992	68.28211000
13.87999992	61.09195000
13.91999992	55.70238000
13.95999992	48.51222000
13.99999991	30.54292000
14.03999991	19.76379000
14.07999991	26.95395000
14.11999991	19.76379000
14.15999991	5.38956800
14.19999991	-8.98464900
14.23999991	-17.96930000
14.27999991	-25.15336000
14.31999991	-37.73308000
14.35999991	-52.10730000
14.39999991	-59.29746000
14.43999991	-66.48762000
14.47999991	-71.87719000
14.51999991	-71.87719000
14.55999991	-71.87719000
14.59999991	-68.28211000
14.63999991	-66.48762000
14.67999991	-59.29746000
14.71999991	-53.90789000
14.75999991	-52.10730000
14.79999991	-46.71774000
14.83999991	-43.12265000
14.87999991	-39.52757000
14.91999991	-41.32816000
14.95999991	-53.90789000
14.99999991	-70.07660000
15.03999991	-57.50298000
15.07999991	-35.93859000
15.11999991	-23.35887000
15.15999991	-8.98464900
15.19999991	14.37422000
15.23999991	43.12265000
15.27999991	70.07660000
15.31999991	71.87719000
15.35999991	61.09195000
15.39999991	53.90789000
15.43999991	57.50298000
15.47999991	64.68703000
15.51999991	64.68703000
15.55999991	59.29746000
15.59999991	62.89254000
15.63999990	71.87719000
15.67999990	79.06125000
15.71999990	73.67168000
15.75999990	62.89254000
15.79999990	57.50298000
15.83999990	57.50298000
15.87999990	53.90789000
15.91999990	43.12265000
15.95999990	32.34352000
15.99999990	23.35887000
16.03999990	21.55827000
16.07999990	14.37422000
16.11999990	7.18405700
16.15999990	0.00000000
16.19999990	-5.38956800
16.23999990	-12.57363000
16.27999990	-17.96930000
16.31999990	-30.54292000
16.35999990	-44.92325000
16.39999990	-59.29746000
16.43999990	-66.48762000
16.47999990	-73.67168000
16.51999990	-80.86184000
16.55999990	-82.65633000
16.59999990	-80.86184000
16.63999990	-71.87719000
16.67999990	-64.68703000
16.71999990	-57.50298000
16.75999990	-50.31281000
16.79999990	-43.12265000
16.83999990	-39.52757000
16.87999990	-35.93859000
16.91999990	-35.93859000
16.95999990	-32.34352000
16.99999990	-28.74844000
17.03999990	-23.35887000
17.07999990	-16.16870000
17.11999990	-8.98464900
17.15999990	0.00000000
17.19999990	10.77914000
17.23999990	19.76379000
17.27999989	26.95395000
17.31999989	34.13800000
17.35999989	43.12265000
17.39999989	50.31281000
17.43999989	59.29746000
17.47999989	70.07660000
17.51999989	75.47227000
17.55999989	79.06125000
17.59999989	82.65633000
17.63999989	82.65633000
17.67999989	80.86184000
17.71999989	77.26676000
17.75999989	71.87719000
17.79999989	66.48762000
17.83999989	59.29746000
17.87999989	52.10730000
17.91999989	43.12265000
17.95999989	35.93859000
17.99999989	26.95395000
18.03999989	19.76379000
18.07999989	10.77914000
18.11999989	0.00000000
18.15999989	-8.98464900
18.19999989	-19.76379000
18.23999989	-30.54292000
18.27999989	-41.32816000
18.31999989	-52.10730000
18.35999989	-61.09195000
18.39999989	-68.28211000
18.43999989	-73.67168000
18.47999989	-75.47227000
18.51999989	-77.26676000
18.55999989	-73.67168000
18.59999989	-70.07660000
18.63999989	-62.89254000
18.67999989	-57.50298000
18.71999989	-50.31281000
18.75999989	-44.92325000
18.79999989	-41.32816000
18.83999989	-37.73308000
18.87999989	-37.73308000
18.91999989	-30.54292000
18.95999988	-30.54292000
18.99999988	-23.35887000
19.03999988	-16.16870000
19.07999988	-12.57363000
19.11999988	-8.98464900
19.15999988	-1.79448800
19.19999988	5.38956800
19.23999988	14.37422000
19.27999988	21.55827000
19.31999988	30.54292000
19.35999988	43.12265000
19.39999988	53.90789000
19.43999988	62.89254000
19.47999988	73.67168000
19.51999988	82.65633000
19.55999988	86.25141000
19.59999988	88.04590000
19.63999988	86.25141000
19.67999988	82.65633000
19.71999988	77.26676000
19.75999988	71.87719000
19.79999988	64.68703000
19.83999988	57.50298000
19.87999988	50.31281000
19.91999988	41.32816000
19.95999988	30.54292000
19.99999988	21.55827000
20.03999988	12.57363000
20.07999988	5.38956800
20.11999988	-5.38956800
20.15999988	-14.37422000
20.19999988	-26.95395000
20.23999988	-37.73308000
20.27999988	-48.51222000
20.31999988	-59.29746000
20.35999988	-64.68703000
20.39999988	-64.68703000
20.43999988	-71.87719000
20.47999988	-79.06125000
20.51999988	-73.67168000
20.55999988	-64.68703000
20.59999987	-59.29746000
20.63999987	-59.29746000
20.67999987	-57.50298000
20.71999987	-48.51222000
20.75999987	-43.12265000
20.79999987	-39.52757000
20.83999987	-37.73308000
20.87999987	-35.93859000
20.91999987	-30.54292000
20.95999987	-26.95395000
20.99999987	-23.35887000
21.03999987	-19.76379000
21.07999987	-14.37422000
21.11999987	-7.18405700
21.15999987	0.00000000
21.19999987	7.18405700
21.23999987	16.16870000
21.27999987	25.15336000
21.31999987	35.93859000
21.35999987	48.51222000
21.39999987	61.09195000
21.43999987	71.87719000
21.47999987	82.65633000
21.51999987	88.04590000
21.55999987	89.84650000
21.59999987	88.04590000
21.63999987	84.45692000
21.67999987	80.86184000
21.71999987	73.67168000
21.75999987	68.28211000
21.79999987	59.29746000
21.83999987	52.10730000
21.87999987	43.12265000
21.91999987	34.13800000
21.95999987	26.95395000
21.99999987	17.96930000
22.03999987	8.98464900
22.07999987	0.00000000
22.11999987	-8.98464900
22.15999987	-21.55827000
22.19999987	-32.34352000
22.23999986	-43.12265000
22.27999986	-53.90789000
22.31999986	-62.89254000
22.35999986	-70.07660000
22.39999986	-71.87719000
22.43999986	-71.87719000
22.47999986	-71.87719000
22.51999986	-70.07660000
22.55999986	-64.68703000
22.59999986	-61.09195000
22.63999986	-57.50298000
22.67999986	-50.31281000
22.71999986	-46.71774000
22.75999986	-44.92325000
22.79999986	-41.32816000
22.83999986	-37.73308000
22.87999986	-35.93859000
22.91999986	-30.54292000
22.95999986	-26.95395000
22.99999986	-21.55827000
23.03999986	-16.16870000
23.07999986	-8.98464900
23.11999986	-3.58897700
23.15999986	5.38956800
23.19999986	14.37422000
23.23999986	21.55827000
23.27999986	32.34352000
23.31999986	44.92325000
23.35999986	55.70238000
23.39999986	68.28211000
23.43999986	79.06125000
23.47999986	84.45692000
23.51999986	89.84650000
23.55999986	88.04590000
23.59999986	86.25141000
23.63999986	82.65633000
23.67999986	77.26676000
23.71999986	70.07660000
23.75999986	64.68703000
23.79999986	59.29746000
23.83999986	44.92325000
23.87999985	28.74844000
23.91999985	30.54292000
23.95999985	30.54292000
23.99999985	16.16870000
24.03999985	1.79448800
24.07999985	-7.18405700
24.11999985	-14.37422000
24.15999985	-23.35887000
24.19999985	-37.73308000
24.23999985	-50.31281000
24.27999985	-57.50298000
24.31999985	-66.48762000
24.35999985	-71.87719000
24.39999985	-73.67168000
24.43999985	-73.67168000
24.47999985	-71.87719000
24.51999985	-68.28211000
24.55999985	-61.09195000
24.59999985	-57.50298000
24.63999985	-57.50298000
24.67999985	-48.51222000
24.71999985	-44.92325000
24.75999985	-43.12265000
24.79999985	-39.52757000
24.83999985	-35.93859000
24.87999985	-32.34352000
24.91999985	-28.74844000
24.95999985	-25.15336000
24.99999985	-19.76379000
25.03999985	-14.37422000
25.07999985	-5.38956800
25.11999985	3.58897700
25.15999985	8.98464900
25.19999985	17.96930000
25.23999985	26.95395000
25.27999985	34.13800000
25.31999985	48.51222000
25.35999985	61.09195000
25.39999985	73.67168000
25.43999985	80.86184000
25.47999985	86.25141000
25.51999984	89.84650000
25.55999984	88.04590000
25.59999984	84.45692000
25.63999984	79.06125000
25.67999984	73.67168000
25.71999984	68.28211000
25.75999984	61.09195000
25.79999984	52.10730000
25.83999984	43.12265000
25.87999984	34.13800000
25.91999984	26.95395000
25.95999984	17.96930000
25.99999984	8.98464900
26.03999984	0.00000000
26.07999984	-8.98464900
26.11999984	-19.76379000
26.15999984	-30.54292000
26.19999984	-43.12265000
26.23999984	-53.90789000
26.27999984	-61.09195000
26.31999984	-70.07660000
26.35999984	-71.87719000
26.39999984	-73.67168000
26.43999984	-71.87719000
26.47999984	-68.28211000
26.51999984	-64.68703000
26.55999984	-61.09195000
26.59999984	-57.50298000
26.63999984	-52.10730000
26.67999984	-48.51222000
26.71999984	-43.12265000
26.75999984	-41.32816000
26.79999984	-37.73308000
26.83999984	-35.93859000
26.87999984	-30.54292000
26.91999984	-26.95395000
26.95999984	-21.55827000
26.99999984	-16.16870000
27.03999984	-8.98464900
27.07999984	-1.79448800
27.11999984	5.38956800
27.15999983	12.57363000
27.19999983	21.55827000
27.23999983	30.54292000
27.27999983	43.12265000
27.31999983	55.70238000
27.35999983	64.68703000
27.39999983	77.26676000
27.43999983	84.45692000
27.47999983	88.04590000
27.51999983	89.84650000
27.55999983	86.25141000
27.59999983	82.65633000
27.63999983	77.26676000
27.67999983	71.87719000
27.71999983	64.68703000
27.75999983	55.70238000
27.79999983	48.51222000
27.83999983	39.52757000
27.87999983	30.54292000
27.91999983	23.35887000
27.95999983	14.37422000
27.99999983	5.38956800
28.03999983	-3.58897700
28.07999983	-14.37422000
28.11999983	-25.15336000
28.15999983	-35.93859000
28.19999983	-46.71774000
28.23999983	-57.50298000
28.27999983	-64.68703000
28.31999983	-70.07660000
28.35999983	-71.87719000
28.39999983	-71.87719000
28.43999983	-70.07660000
28.47999983	-66.48762000
28.51999983	-61.09195000
28.55999983	-57.50298000
28.59999983	-53.90789000
28.63999983	-50.31281000
28.67999983	-44.92325000
28.71999983	-46.71774000
28.75999983	-39.52757000
28.79999982	-37.73308000
28.83999982	-32.34352000
28.87999982	-26.95395000
28.91999982	-23.35887000
28.95999982	-21.55827000
28.99999982	-14.37422000
29.03999982	-7.18405700
29.07999982	0.00000000
29.11999982	7.18405700
29.15999982	14.37422000
29.19999982	25.15336000
29.23999982	35.93859000
29.27999982	46.71774000
29.31999982	57.50298000
29.35999982	71.87719000
29.39999982	80.86184000
29.43999982	86.25141000
29.47999982	89.84650000
29.51999982	88.04590000
29.55999982	84.45692000
29.59999982	80.86184000
29.63999982	73.67168000
29.67999982	68.28211000
29.71999982	61.09195000
29.75999982	52.10730000
29.79999982	43.12265000
29.83999982	35.93859000
29.87999982	26.95395000
29.91999982	17.96930000
29.95999982	7.18405700
29.99999982	-7.18405700
30.03999982	-23.35887000
30.07999982	-41.32816000
30.11999982	-52.10730000
30.15999982	-57.50298000
30.19999982	-55.70238000
30.23999982	-48.51222000
30.27999982	-50.31281000
30.31999982	-46.71774000
30.35999982	-35.93859000
30.39999982	-30.54292000
30.43999982	-39.52757000
30.47999981	-53.90789000
30.51999981	-61.09195000
30.55999981	-59.29746000
30.59999981	-59.29746000
30.63999981	-64.68703000
30.67999981	-64.68703000
30.71999981	-57.50298000
30.75999981	-48.51222000
30.79999981	-43.12265000
30.83999981	-39.52757000
30.87999981	-35.93859000
30.91999981	-28.74844000
30.95999981	-21.55827000
30.99999981	-12.57363000
31.03999981	-7.18405700
31.07999981	0.00000000
31.11999981	10.77914000
31.15999981	21.55827000
31.19999981	34.13800000
31.23999981	46.71774000
31.27999981	61.09195000
31.31999981	75.47227000
31.35999981	88.04590000
31.39999981	97.03055000
31.43999981	98.83114000
31.47999981	93.44157000
31.51999981	88.04590000
31.55999981	80.86184000
31.59999981	71.87719000
31.63999981	62.89254000
31.67999981	53.90789000
31.71999981	46.71774000
31.75999981	41.32816000
