Time	Channel A
(us)	(mV)

0.00000000	86.25141000
0.04000000	86.25141000
0.08000000	84.45692000
0.12000000	80.86184000
0.16000000	75.47227000
0.20000000	66.48762000
0.24000000	61.09195000
0.28000000	53.90789000
0.32000000	46.71774000
0.36000000	37.73308000
0.40000000	30.54292000
0.44000000	23.35887000
0.48000000	14.37422000
0.52000000	7.18405700
0.56000000	-1.79448800
0.60000000	-10.77914000
0.64000000	-21.55827000
0.68000000	-34.13800000
0.72000000	-44.92325000
0.76000000	-55.70238000
0.80000000	-64.68703000
0.83999999	-68.28211000
0.87999999	-71.87719000
0.91999999	-71.87719000
0.95999999	-68.28211000
0.99999999	-66.48762000
1.03999999	-61.09195000
1.07999999	-55.70238000
1.11999999	-50.31281000
1.15999999	-48.51222000
1.19999999	-43.12265000
1.23999999	-43.12265000
1.27999999	-39.52757000
1.31999999	-35.93859000
1.35999999	-34.13800000
1.39999999	-30.54292000
1.43999999	-26.95395000
1.47999999	-23.35887000
1.51999999	-16.16870000
1.55999999	-10.77914000
1.59999999	-5.38956800
1.63999999	3.58897700
1.67999999	8.98464900
1.71999999	17.96930000
1.75999999	26.95395000
1.79999999	35.93859000
1.83999999	48.51222000
1.87999999	57.50298000
1.91999999	70.07660000
1.95999999	79.06125000
1.99999999	84.45692000
2.03999999	86.25141000
2.07999999	84.45692000
2.11999999	80.86184000
2.15999999	77.26676000
2.19999999	70.07660000
2.23999999	64.68703000
2.27999999	57.50298000
2.31999999	50.31281000
2.35999999	41.32816000
2.39999999	34.13800000
2.43999999	25.15336000
2.47999998	17.96930000
2.51999998	10.77914000
2.55999998	1.79448800
2.59999998	-5.38956800
2.63999998	-17.96930000
2.67999998	-28.74844000
2.71999998	-44.92325000
2.75999998	-53.90789000
2.79999998	-64.68703000
2.83999998	-64.68703000
2.87999998	-70.07660000
2.91999998	-70.07660000
2.95999998	-71.87719000
2.99999998	-68.28211000
3.03999998	-64.68703000
3.07999998	-59.29746000
3.11999998	-52.10730000
3.15999998	-48.51222000
3.19999998	-43.12265000
3.23999998	-41.32816000
3.27999998	-39.52757000
3.31999998	-35.93859000
3.35999998	-35.93859000
3.39999998	-32.34352000
3.43999998	-28.74844000
3.47999998	-23.35887000
3.51999998	-17.96930000
3.55999998	-14.37422000
3.59999998	-7.18405700
3.63999998	-1.79448800
3.67999998	7.18405700
3.71999998	14.37422000
3.75999998	23.35887000
3.79999998	34.13800000
3.83999998	44.92325000
3.87999998	61.09195000
3.91999998	71.87719000
3.95999998	77.26676000
3.99999998	80.86184000
4.03999998	86.25141000
4.07999998	89.84650000
4.11999997	89.84650000
4.15999997	89.84650000
4.19999997	93.44157000
4.23999997	91.64098000
4.27999997	82.65633000
4.31999997	64.68703000
4.35999997	43.12265000
4.39999997	23.35887000
4.43999997	1.79448800
4.47999997	-16.16870000
4.51999997	-32.34352000
4.55999997	-35.93859000
4.59999997	-32.34352000
4.63999997	-28.74844000
4.67999997	-26.95395000
4.71999997	-28.74844000
4.75999997	-37.73308000
4.79999997	-41.32816000
4.83999997	-46.71774000
4.87999997	-55.70238000
4.91999997	-59.29746000
4.95999997	-59.29746000
4.99999997	-53.90789000
5.03999997	-50.31281000
5.07999997	-48.51222000
5.11999997	-46.71774000
5.15999997	-43.12265000
5.19999997	-41.32816000
5.23999997	-37.73308000
5.27999997	-37.73308000
5.31999997	-37.73308000
5.35999997	-37.73308000
5.39999997	-39.52757000
5.43999997	-37.73308000
5.47999997	-37.73308000
5.51999997	-35.93859000
5.55999997	-28.74844000
5.59999997	-17.96930000
5.63999997	-7.18405700
5.67999997	3.58897700
5.71999997	16.16870000
5.75999996	28.74844000
5.79999996	43.12265000
5.83999996	53.90789000
5.87999996	64.68703000
5.91999996	73.67168000
5.95999996	80.86184000
5.99999996	86.25141000
6.03999996	86.25141000
6.07999996	84.45692000
6.11999996	84.45692000
6.15999996	79.06125000
6.19999996	75.47227000
6.23999996	66.48762000
6.27999996	57.50298000
6.31999996	48.51222000
6.35999996	37.73308000
6.39999996	26.95395000
6.43999996	19.76379000
6.47999996	10.77914000
6.51999996	5.38956800
6.55999996	0.00000000
6.59999996	-5.38956800
6.63999996	-12.57363000
6.67999996	-21.55827000
6.71999996	-30.54292000
6.75999996	-43.12265000
6.79999996	-52.10730000
6.83999996	-59.29746000
6.87999996	-66.48762000
6.91999996	-68.28211000
6.95999996	-70.07660000
6.99999996	-66.48762000
7.03999996	-64.68703000
7.07999996	-61.09195000
7.11999996	-57.50298000
7.15999996	-52.10730000
7.19999996	-50.31281000
7.23999996	-44.92325000
7.27999996	-43.12265000
7.31999996	-39.52757000
7.35999996	-35.93859000
7.39999996	-34.13800000
7.43999995	-30.54292000
7.47999995	-26.95395000
7.51999995	-21.55827000
7.55999995	-16.16870000
7.59999995	-8.98464900
7.63999995	3.58897700
7.67999995	10.77914000
7.71999995	8.98464900
7.75999995	19.76379000
7.79999995	43.12265000
7.83999995	52.10730000
7.87999995	57.50298000
7.91999995	62.89254000
7.95999995	73.67168000
7.99999995	84.45692000
8.03999995	84.45692000
8.07999995	82.65633000
8.11999995	80.86184000
8.15999995	77.26676000
8.19999995	71.87719000
8.23999995	64.68703000
8.27999995	59.29746000
8.31999995	50.31281000
8.35999995	43.12265000
8.39999995	35.93859000
8.43999995	28.74844000
8.47999995	19.76379000
8.51999995	12.57363000
8.55999995	5.38956800
8.59999995	-1.79448800
8.63999995	-10.77914000
8.67999995	-21.55827000
8.71999995	-34.13800000
8.75999995	-44.92325000
8.79999995	-57.50298000
8.83999995	-64.68703000
8.87999995	-70.07660000
8.91999995	-71.87719000
8.95999995	-71.87719000
8.99999995	-68.28211000
9.03999995	-64.68703000
9.07999994	-62.89254000
9.11999994	-53.90789000
9.15999994	-52.10730000
9.19999994	-46.71774000
9.23999994	-44.92325000
9.27999994	-43.12265000
9.31999994	-41.32816000
9.35999994	-35.93859000
9.39999994	-32.34352000
9.43999994	-28.74844000
9.47999994	-28.74844000
9.51999994	-21.55827000
9.55999994	-14.37422000
9.59999994	-7.18405700
9.63999994	-3.58897700
9.67999994	3.58897700
9.71999994	12.57363000
9.75999994	19.76379000
9.79999994	28.74844000
9.83999994	35.93859000
9.87999994	48.51222000
9.91999994	57.50298000
9.95999994	70.07660000
9.99999994	79.06125000
10.03999994	84.45692000
10.07999994	86.25141000
10.11999994	86.25141000
10.15999994	82.65633000
10.19999994	77.26676000
10.23999994	71.87719000
10.27999994	64.68703000
10.31999994	57.50298000
10.35999994	48.51222000
10.39999994	41.32816000
10.43999994	34.13800000
10.47999994	25.15336000
10.51999994	17.96930000
10.55999994	10.77914000
10.59999994	1.79448800
10.63999994	-7.18405700
10.67999994	-16.16870000
10.71999993	-26.95395000
10.75999993	-32.34352000
10.79999993	-28.74844000
10.83999993	-25.15336000
10.87999993	-37.73308000
10.91999993	-62.89254000
10.95999993	-71.87719000
10.99999993	-79.06125000
11.03999993	-91.64098000
11.07999993	-109.61030000
11.11999993	-115.00600000
11.15999993	-98.83114000
11.19999993	-73.67168000
11.23999993	-53.90789000
11.27999993	-44.92325000
11.31999993	-35.93859000
11.35999993	-21.55827000
11.39999993	-8.98464900
11.43999993	-7.18405700
11.47999993	-14.37422000
11.51999993	-16.16870000
11.55999993	-8.98464900
11.59999993	0.00000000
11.63999993	3.58897700
11.67999993	5.38956800
11.71999993	10.77914000
11.75999993	21.55827000
11.79999993	28.74844000
11.83999993	35.93859000
11.87999993	43.12265000
11.91999993	50.31281000
11.95999993	61.09195000
11.99999993	70.07660000
12.03999993	71.87719000
12.07999993	71.87719000
12.11999993	68.28211000
12.15999993	68.28211000
12.19999993	70.07660000
12.23999993	70.07660000
12.27999993	66.48762000
12.31999993	62.89254000
12.35999992	61.09195000
12.39999992	57.50298000
12.43999992	50.31281000
12.47999992	37.73308000
12.51999992	26.95395000
12.55999992	12.57363000
12.59999992	3.58897700
12.63999992	-5.38956800
12.67999992	-12.57363000
12.71999992	-25.15336000
12.75999992	-32.34352000
12.79999992	-44.92325000
12.83999992	-57.50298000
12.87999992	-66.48762000
12.91999992	-73.67168000
12.95999992	-79.06125000
12.99999992	-79.06125000
13.03999992	-79.06125000
13.07999992	-75.47227000
13.11999992	-70.07660000
13.15999992	-62.89254000
13.19999992	-53.90789000
13.23999992	-44.92325000
13.27999992	-39.52757000
13.31999992	-34.13800000
13.35999992	-30.54292000
13.39999992	-28.74844000
13.43999992	-28.74844000
13.47999992	-25.15336000
13.51999992	-23.35887000
13.55999992	-17.96930000
13.59999992	-12.57363000
13.63999992	-8.98464900
13.67999992	-3.58897700
13.71999992	0.00000000
13.75999992	7.18405700
13.79999992	17.96930000
13.83999992	26.95395000
13.87999992	32.34352000
13.91999992	41.32816000
13.95999992	55.70238000
13.99999991	70.07660000
14.03999991	77.26676000
14.07999991	80.86184000
14.11999991	80.86184000
14.15999991	82.65633000
14.19999991	79.06125000
14.23999991	75.47227000
14.27999991	70.07660000
14.31999991	64.68703000
14.35999991	59.29746000
14.39999991	53.90789000
14.43999991	43.12265000
14.47999991	34.13800000
14.51999991	25.15336000
14.55999991	14.37422000
14.59999991	5.38956800
14.63999991	-1.79448800
14.67999991	-12.57363000
14.71999991	-21.55827000
14.75999991	-30.54292000
14.79999991	-41.32816000
14.83999991	-52.10730000
14.87999991	-61.09195000
14.91999991	-66.48762000
14.95999991	-70.07660000
14.99999991	-71.87719000
15.03999991	-71.87719000
15.07999991	-64.68703000
15.11999991	-57.50298000
15.15999991	-52.10730000
15.19999991	-48.51222000
15.23999991	-44.92325000
15.27999991	-41.32816000
15.31999991	-37.73308000
15.35999991	-35.93859000
15.39999991	-34.13800000
15.43999991	-32.34352000
15.47999991	-30.54292000
15.51999991	-28.74844000
15.55999991	-23.35887000
15.59999991	-19.76379000
15.63999990	-14.37422000
15.67999990	-8.98464900
15.71999990	-1.79448800
15.75999990	7.18405700
15.79999990	14.37422000
15.83999990	25.15336000
15.87999990	35.93859000
15.91999990	46.71774000
15.95999990	61.09195000
15.99999990	71.87719000
16.03999990	80.86184000
16.07999990	86.25141000
16.11999990	86.25141000
16.15999990	86.25141000
16.19999990	79.06125000
16.23999990	75.47227000
16.27999990	70.07660000
16.31999990	64.68703000
16.35999990	55.70238000
16.39999990	48.51222000
16.43999990	39.52757000
16.47999990	30.54292000
16.51999990	23.35887000
16.55999990	14.37422000
16.59999990	7.18405700
16.63999990	0.00000000
16.67999990	-8.98464900
16.71999990	-21.55827000
16.75999990	-30.54292000
16.79999990	-43.12265000
16.83999990	-53.90789000
16.87999990	-62.89254000
16.91999990	-68.28211000
16.95999990	-71.87719000
16.99999990	-71.87719000
17.03999990	-68.28211000
17.07999990	-66.48762000
17.11999990	-62.89254000
17.15999990	-57.50298000
17.19999990	-53.90789000
17.23999990	-48.51222000
17.27999989	-44.92325000
17.31999989	-41.32816000
17.35999989	-39.52757000
17.39999989	-35.93859000
17.43999989	-34.13800000
17.47999989	-28.74844000
17.51999989	-25.15336000
17.55999989	-30.54292000
17.59999989	-23.35887000
17.63999989	-1.79448800
17.67999989	3.58897700
17.71999989	1.79448800
17.75999989	7.18405700
17.79999989	17.96930000
17.83999989	32.34352000
17.87999989	43.12265000
17.91999989	52.10730000
17.95999989	64.68703000
17.99999989	75.47227000
18.03999989	80.86184000
18.07999989	84.45692000
18.11999989	86.25141000
18.15999989	80.86184000
18.19999989	77.26676000
18.23999989	73.67168000
18.27999989	68.28211000
18.31999989	59.29746000
18.35999989	52.10730000
18.39999989	43.12265000
18.43999989	35.93859000
18.47999989	26.95395000
18.51999989	21.55827000
18.55999989	12.57363000
18.59999989	5.38956800
18.63999989	-3.58897700
18.67999989	-12.57363000
18.71999989	-23.35887000
18.75999989	-35.93859000
18.79999989	-44.92325000
18.83999989	-55.70238000
18.87999989	-64.68703000
18.91999989	-68.28211000
18.95999988	-71.87719000
18.99999988	-71.87719000
19.03999988	-70.07660000
19.07999988	-62.89254000
19.11999988	-61.09195000
19.15999988	-55.70238000
19.19999988	-52.10730000
19.23999988	-50.31281000
19.27999988	-43.12265000
19.31999988	-39.52757000
19.35999988	-37.73308000
19.39999988	-37.73308000
19.43999988	-34.13800000
19.47999988	-28.74844000
19.51999988	-23.35887000
19.55999988	-21.55827000
19.59999988	-16.16870000
19.63999988	-8.98464900
19.67999988	-1.79448800
19.71999988	5.38956800
19.75999988	12.57363000
19.79999988	17.96930000
19.83999988	26.95395000
19.87999988	41.32816000
19.91999988	50.31281000
19.95999988	62.89254000
19.99999988	73.67168000
20.03999988	80.86184000
20.07999988	86.25141000
20.11999988	86.25141000
20.15999988	82.65633000
20.19999988	79.06125000
20.23999988	75.47227000
20.27999988	68.28211000
20.31999988	61.09195000
20.35999988	53.90789000
20.39999988	46.71774000
20.43999988	37.73308000
20.47999988	30.54292000
20.51999988	21.55827000
20.55999988	14.37422000
20.59999987	7.18405700
20.63999987	0.00000000
20.67999987	-8.98464900
20.71999987	-21.55827000
20.75999987	-32.34352000
20.79999987	-43.12265000
20.83999987	-53.90789000
20.87999987	-62.89254000
20.91999987	-68.28211000
20.95999987	-71.87719000
20.99999987	-71.87719000
21.03999987	-70.07660000
21.07999987	-66.48762000
21.11999987	-62.89254000
21.15999987	-57.50298000
21.19999987	-52.10730000
21.23999987	-46.71774000
21.27999987	-43.12265000
21.31999987	-41.32816000
21.35999987	-37.73308000
21.39999987	-35.93859000
21.43999987	-32.34352000
21.47999987	-28.74844000
21.51999987	-26.95395000
21.55999987	-21.55827000
21.59999987	-16.16870000
21.63999987	-10.77914000
21.67999987	-5.38956800
21.71999987	1.79448800
21.75999987	8.98464900
21.79999987	17.96930000
21.83999987	26.95395000
21.87999987	35.93859000
21.91999987	48.51222000
21.95999987	59.29746000
21.99999987	71.87719000
22.03999987	79.06125000
22.07999987	84.45692000
22.11999987	86.25141000
22.15999987	84.45692000
22.19999987	79.06125000
22.23999986	75.47227000
22.27999986	68.28211000
22.31999986	62.89254000
22.35999986	53.90789000
22.39999986	44.92325000
22.43999986	37.73308000
22.47999986	30.54292000
22.51999986	25.15336000
22.55999986	19.76379000
22.59999986	12.57363000
22.63999986	0.00000000
22.67999986	-7.18405700
22.71999986	-16.16870000
22.75999986	-28.74844000
22.79999986	-43.12265000
22.83999986	-53.90789000
22.87999986	-61.09195000
22.91999986	-68.28211000
22.95999986	-70.07660000
22.99999986	-71.87719000
23.03999986	-68.28211000
23.07999986	-66.48762000
23.11999986	-61.09195000
23.15999986	-57.50298000
23.19999986	-50.31281000
23.23999986	-46.71774000
23.27999986	-43.12265000
23.31999986	-41.32816000
23.35999986	-37.73308000
23.39999986	-35.93859000
23.43999986	-34.13800000
23.47999986	-30.54292000
23.51999986	-28.74844000
23.55999986	-23.35887000
23.59999986	-19.76379000
23.63999986	-10.77914000
23.67999986	-3.58897700
23.71999986	5.38956800
23.75999986	12.57363000
23.79999986	14.37422000
23.83999986	23.35887000
23.87999985	35.93859000
23.91999985	50.31281000
23.95999985	62.89254000
23.99999985	71.87719000
24.03999985	79.06125000
24.07999985	86.25141000
24.11999985	86.25141000
24.15999985	84.45692000
24.19999985	79.06125000
24.23999985	73.67168000
24.27999985	70.07660000
24.31999985	62.89254000
24.35999985	55.70238000
24.39999985	46.71774000
24.43999985	39.52757000
24.47999985	30.54292000
24.51999985	23.35887000
24.55999985	16.16870000
24.59999985	7.18405700
24.63999985	0.00000000
24.67999985	-8.98464900
24.71999985	-19.76379000
24.75999985	-32.34352000
24.79999985	-43.12265000
24.83999985	-52.10730000
24.87999985	-61.09195000
24.91999985	-66.48762000
24.95999985	-71.87719000
24.99999985	-70.07660000
25.03999985	-68.28211000
25.07999985	-64.68703000
25.11999985	-61.09195000
25.15999985	-55.70238000
25.19999985	-52.10730000
25.23999985	-46.71774000
25.27999985	-44.92325000
25.31999985	-41.32816000
25.35999985	-39.52757000
25.39999985	-35.93859000
25.43999985	-34.13800000
25.47999985	-28.74844000
25.51999984	-25.15336000
25.55999984	-21.55827000
25.59999984	-16.16870000
25.63999984	-10.77914000
25.67999984	-3.58897700
25.71999984	3.58897700
25.75999984	12.57363000
25.79999984	19.76379000
25.83999984	28.74844000
25.87999984	39.52757000
25.91999984	50.31281000
25.95999984	62.89254000
25.99999984	71.87719000
26.03999984	80.86184000
26.07999984	84.45692000
26.11999984	84.45692000
26.15999984	82.65633000
26.19999984	79.06125000
26.23999984	73.67168000
26.27999984	66.48762000
26.31999984	61.09195000
26.35999984	53.90789000
26.39999984	44.92325000
26.43999984	37.73308000
26.47999984	28.74844000
26.51999984	21.55827000
26.55999984	14.37422000
26.59999984	7.18405700
26.63999984	-1.79448800
26.67999984	-10.77914000
26.71999984	-21.55827000
26.75999984	-34.13800000
26.79999984	-44.92325000
26.83999984	-55.70238000
26.87999984	-62.89254000
26.91999984	-68.28211000
26.95999984	-70.07660000
26.99999984	-71.87719000
27.03999984	-68.28211000
27.07999984	-64.68703000
27.11999984	-59.29746000
27.15999983	-52.10730000
27.19999983	-48.51222000
27.23999983	-44.92325000
27.27999983	-43.12265000
27.31999983	-37.73308000
27.35999983	-32.34352000
27.39999983	-41.32816000
27.43999983	-43.12265000
27.47999983	-25.15336000
27.51999983	-17.96930000
27.55999983	-19.76379000
27.59999983	-19.76379000
27.63999983	-12.57363000
27.67999983	-1.79448800
27.71999983	5.38956800
27.75999983	12.57363000
27.79999983	21.55827000
27.83999983	32.34352000
27.87999983	43.12265000
27.91999983	53.90789000
27.95999983	66.48762000
27.99999983	77.26676000
28.03999983	80.86184000
28.07999983	84.45692000
28.11999983	86.25141000
28.15999983	82.65633000
28.19999983	77.26676000
28.23999983	71.87719000
28.27999983	64.68703000
28.31999983	57.50298000
28.35999983	50.31281000
28.39999983	43.12265000
28.43999983	35.93859000
28.47999983	26.95395000
28.51999983	17.96930000
28.55999983	10.77914000
28.59999983	5.38956800
28.63999983	-3.58897700
28.67999983	-14.37422000
28.71999983	-25.15336000
28.75999983	-37.73308000
28.79999982	-48.51222000
28.83999982	-57.50298000
28.87999982	-64.68703000
28.91999982	-66.48762000
28.95999982	-68.28211000
28.99999982	-66.48762000
29.03999982	-64.68703000
29.07999982	-64.68703000
29.11999982	-61.09195000
29.15999982	-53.90789000
29.19999982	-46.71774000
29.23999982	-44.92325000
29.27999982	-43.12265000
29.31999982	-39.52757000
29.35999982	-34.13800000
29.39999982	-32.34352000
29.43999982	-32.34352000
29.47999982	-28.74844000
29.51999982	-23.35887000
29.55999982	-16.16870000
29.59999982	-12.57363000
29.63999982	-7.18405700
29.67999982	0.00000000
29.71999982	7.18405700
29.75999982	16.16870000
29.79999982	25.15336000
29.83999982	34.13800000
29.87999982	46.71774000
29.91999982	61.09195000
29.95999982	71.87719000
29.99999982	79.06125000
30.03999982	84.45692000
30.07999982	84.45692000
30.11999982	84.45692000
30.15999982	79.06125000
30.19999982	75.47227000
30.23999982	70.07660000
30.27999982	62.89254000
30.31999982	55.70238000
30.35999982	46.71774000
30.39999982	39.52757000
30.43999982	30.54292000
30.47999981	23.35887000
30.51999981	16.16870000
30.55999981	8.98464900
30.59999981	0.00000000
30.63999981	-8.98464900
30.67999981	-19.76379000
30.71999981	-30.54292000
30.75999981	-43.12265000
30.79999981	-53.90789000
30.83999981	-62.89254000
30.87999981	-66.48762000
30.91999981	-68.28211000
30.95999981	-68.28211000
30.99999981	-64.68703000
31.03999981	-61.09195000
31.07999981	-57.50298000
31.11999981	-53.90789000
31.15999981	-50.31281000
31.19999981	-44.92325000
31.23999981	-43.12265000
31.27999981	-41.32816000
31.31999981	-37.73308000
31.35999981	-35.93859000
31.39999981	-32.34352000
31.43999981	-30.54292000
31.47999981	-26.95395000
31.51999981	-21.55827000
31.55999981	-16.16870000
31.59999981	-10.77914000
31.63999981	-3.58897700
31.67999981	1.79448800
31.71999981	10.77914000
31.75999981	19.76379000
